1344	976	832	240	64	672	1	
1344	976	832	240	64	672	1	
1376	960	848	192	48	704	1	
1392	928	880	208	32	720	1	
1392	960	912	144	64	688	1	
1408	976	896	144	64	704	1	
1408	976	896	144	64	704	1	
1392	976	912	128	64	688	1	
1344	992	928	96	64	656	1	
1344	992	928	96	64	656	1	
1344	992	928	96	64	656	1	
1344	992	928	80	64	672	1	
1296	1008	928	96	80	672	1	
1264	992	944	112	32	688	1	
1264	992	944	112	32	688	1	
1248	976	928	80	48	688	1	
1248	976	928	80	48	688	1	
1232	1008	928	80	64	672	1	
1216	1008	928	64	32	736	1	
1168	992	912	64	48	720	1	
1168	992	912	64	48	720	1	
1152	992	912	48	80	736	1	
1152	992	912	48	80	736	1	
1120	1024	928	48	48	752	1	
1088	1008	896	80	48	768	1	
1088	1008	896	80	48	768	1	
1136	1024	912	48	48	784	1	
1136	1024	912	48	48	784	1	
1216	992	880	96	64	768	1	
1216	992	880	96	64	768	1	
1328	992	880	64	80	784	1	
1424	992	880	144	64	848	1	
1456	1024	912	160	48	864	1	
1456	1024	912	160	48	864	1	
1520	1024	896	192	80	848	1	
1536	1024	912	192	80	848	1	
1536	1024	912	192	80	848	1	
1568	1024	896	240	48	848	1	
1568	1024	896	240	48	848	1	
1568	1024	896	240	48	848	1	
1568	1024	896	240	48	848	1	
1568	1072	848	240	32	832	1	
1584	1072	832	240	48	784	1	
1552	1072	800	240	64	800	1	
1536	1072	800	288	64	816	1	
1536	1072	800	288	64	816	1	
1504	1088	784	320	80	784	1	
1488	1072	816	352	96	784	1	
1488	1072	816	352	96	784	1	
1456	1120	848	384	64	800	1	
1456	1120	848	384	64	800	1	
1376	1120	864	448	48	784	1	
1344	1120	848	448	32	768	1	
1344	1120	848	448	32	768	1	
1344	1120	848	448	32	768	1	
1312	1136	832	464	48	784	1	
1248	1120	848	464	48	784	1	
1280	1104	864	448	80	768	1	
1280	1104	864	448	80	768	1	
1184	1136	848	480	80	800	1	
1184	1136	848	480	80	800	1	
1104	1136	864	448	64	800	1	
1104	1136	864	448	64	800	1	
1104	1136	864	432	64	800	1	
1104	1136	864	432	64	800	1	
1056	1136	880	432	64	800	1	
1056	1136	880	432	64	800	1	
1040	1136	912	416	64	832	1	
1056	1136	928	416	48	816	1	
1120	1104	928	400	80	832	1	
1120	1104	928	400	80	832	1	
1168	1136	960	384	64	800	1	
1168	1136	960	384	64	800	1	
1248	1120	976	368	96	800	1	
1248	1120	976	368	96	800	1	
1328	1120	960	400	48	800	1	
1376	1104	912	384	64	816	1	
1376	1104	912	384	64	816	1	
1440	1152	960	336	48	768	1	
1472	1184	912	352	32	768	1	
1472	1184	912	352	32	768	1	
1472	1200	928	272	48	736	1	
1472	1200	928	272	48	736	1	
1472	1232	928	272	80	688	1	
1456	1264	944	256	48	704	1	
1456	1264	944	256	48	704	1	
1472	1312	944	224	48	720	1	
1408	1312	928	240	48	672	1	
1408	1312	928	240	48	672	1	
1424	1328	928	240	48	672	1	
1360	1328	992	224	48	672	1	
1360	1328	992	224	48	672	1	
1360	1344	976	256	80	688	1	
1296	1360	944	336	64	656	1	
1296	1360	944	336	64	656	1	
1296	1360	944	336	64	656	1	
1296	1360	944	336	64	656	1	
1248	1360	992	336	80	640	1	
1216	1328	960	400	48	624	1	
1168	1328	944	368	80	624	1	
1152	1312	992	368	96	624	1	
1152	1312	992	368	96	624	1	
1152	1312	992	368	96	624	1	
1136	1328	960	384	80	672	1	
1152	1328	992	368	48	688	1	
1216	1328	992	368	80	672	1	
1216	1328	992	368	80	672	1	
1312	1360	1024	384	64	720	1	
1408	1360	1024	384	64	736	1	
1408	1360	1024	384	64	736	1	
1408	1360	1024	384	64	736	1	
1504	1392	1040	384	48	800	1	
1552	1392	1072	336	80	784	1	
1552	1392	1072	336	80	784	1	
1600	1408	1040	384	64	816	1	
1616	1392	1056	368	32	800	1	
1616	1392	1056	368	32	800	1	
1632	1360	1072	320	64	784	1	
1632	1360	1072	320	64	784	1	
1664	1344	1040	320	64	784	1	
1632	1312	1072	320	48	784	1	
1632	1312	1072	320	48	784	1	
1600	1296	1024	272	80	768	1	
1568	1264	1024	256	128	752	1	
1568	1264	1024	256	128	752	1	
1552	1264	1024	272	112	720	1	
1520	1216	1024	240	80	736	1	
1520	1216	1024	240	80	736	1	
1456	1264	1008	240	112	736	1	
1440	1232	992	256	80	704	1	
1440	1232	992	256	80	704	1	
1376	1264	1024	224	96	688	1	
1376	1264	1024	224	96	688	1	
1376	1264	1024	224	96	688	1	
1360	1280	960	208	80	704	1	
1360	1280	960	208	80	704	1	
1344	1280	928	192	96	688	1	
1312	1280	960	176	80	688	1	
1312	1280	960	176	80	688	1	
1312	1296	928	128	64	720	1	
1328	1328	896	96	64	752	1	
1328	1328	896	96	64	752	1	
1296	1312	960	112	48	752	1	
1296	1312	960	112	48	752	1	
1312	1280	944	80	48	768	1	
1408	1296	992	96	96	752	1	
1408	1296	992	96	96	752	1	
1424	1312	960	160	64	800	1	
1488	1296	960	192	48	800	1	
1488	1296	960	192	48	800	1	
1504	1264	960	224	16	800	1	
1536	1264	976	224	64	800	1	
1536	1264	976	224	64	800	1	
1568	1264	992	256	96	784	1	
1568	1264	992	256	96	784	1	
1584	1312	992	272	96	800	1	
1568	1312	960	272	96	784	1	
1568	1312	960	272	96	784	1	
1568	1312	960	272	96	784	1	
1552	1280	992	320	64	816	1	
1552	1264	992	416	32	832	1	
1536	1248	976	448	48	832	1	
1520	1280	976	464	80	800	1	
1520	1280	976	464	80	800	1	
1520	1264	960	496	64	832	1	
1488	1248	976	480	80	800	1	
1488	1248	976	480	80	800	1	
1440	1280	928	464	64	752	1	
1440	1280	928	464	64	752	1	
1456	1232	960	480	64	752	1	
1456	1232	960	480	64	752	1	
1424	1232	960	448	48	768	1	
1424	1200	960	432	80	768	1	
1424	1200	960	432	80	768	1	
1440	1216	976	464	32	816	1	
1440	1216	976	464	32	816	1	
1440	1264	992	416	80	832	1	
1424	1248	1040	384	48	864	1	
1440	1232	1056	352	48	896	1	
1440	1232	1056	352	48	896	1	
1456	1280	1072	320	64	944	1	
1520	1264	1120	272	96	928	1	
1520	1264	1120	272	96	928	1	
1584	1296	1104	288	64	960	1	
1664	1296	1104	256	32	944	1	
1680	1328	1072	224	80	960	1	
1712	1312	1088	192	80	944	1	
1712	1312	1088	192	80	944	1	
1712	1264	1120	144	80	912	1	
1712	1264	1120	144	80	912	1	
1696	1296	1056	144	64	944	1	
1696	1264	1040	112	64	944	1	
1696	1264	1040	112	64	944	1	
1680	1264	1008	112	48	896	1	
1664	1264	976	48	64	912	1	
1664	1264	976	48	64	912	1	
1632	1264	912	48	64	880	1	
1600	1232	896	48	48	864	1	
1600	1232	896	48	48	864	1	
1568	1232	880	48	32	848	1	
1536	1200	832	80	48	864	1	
1536	1200	832	80	48	864	1	
1536	1184	864	80	96	800	1	
1536	1184	864	80	96	800	1	
1488	1216	832	208	48	832	1	
1488	1184	816	272	32	800	1	
1488	1184	816	272	32	800	1	
1456	1184	784	288	32	752	1	
1472	1200	752	320	64	768	1	
1456	1152	752	288	64	800	1	
1456	1152	752	288	64	800	1	
1440	1136	704	288	48	816	1	
1408	1184	688	320	80	816	1	
1408	1152	704	288	80	816	1	
1408	1152	704	288	80	816	1	
1440	1184	672	336	48	848	1	
1440	1184	672	336	48	848	1	
1440	1184	672	336	48	848	1	
1520	1200	672	288	80	880	1	
1520	1200	672	288	80	880	1	
1568	1216	656	320	64	864	1	
1584	1184	688	304	48	880	1	
1584	1200	752	256	96	864	1	
1584	1200	752	256	96	864	1	
1600	1200	752	208	80	880	1	
1584	1184	752	208	48	864	1	
1616	1184	736	176	80	880	1	
1616	1184	736	176	80	880	1	
1536	1152	736	160	32	912	1	
1520	1136	752	160	48	928	1	
1520	1136	752	160	48	928	1	
1472	1152	736	128	64	928	1	
1472	1152	736	128	64	928	1	
1440	1136	736	144	48	976	1	
1376	1152	752	80	32	976	1	
1376	1152	752	80	32	976	1	
1328	1152	720	96	80	976	1	
1344	1152	704	64	80	992	1	
1344	1152	704	64	80	992	1	
1312	1184	736	64	64	992	1	
1280	1184	768	96	80	1008	1	
1248	1200	816	64	48	1008	1	
1200	1184	832	32	96	960	1	
1200	1184	832	32	96	960	1	
1152	1184	800	48	80	960	1	
1152	1184	800	48	80	960	1	
1168	1216	832	80	64	944	1	
1152	1216	848	48	80	928	1	
1200	1200	896	64	112	912	1	
1280	1152	928	112	64	912	1	
1280	1152	928	112	64	912	1	
1280	1152	928	112	64	912	1	
1312	1152	912	160	64	880	1	
1328	1136	928	208	64	864	1	
1376	1120	928	240	48	848	1	
1376	1120	928	240	48	848	1	
1376	1152	912	304	96	832	1	
1376	1152	912	304	96	832	1	
1392	1136	944	368	48	816	1	
1408	1088	960	432	32	832	1	
1408	1072	976	448	64	816	1	
1408	1072	976	448	64	816	1	
1408	1072	992	464	64	816	1	
1392	1056	1040	432	96	816	1	
1392	1056	1040	432	96	816	1	
1328	1072	1104	448	48	848	1	
1328	1072	1104	448	48	848	1	
1360	1040	1136	432	64	848	1	
1312	1024	1152	432	48	848	1	
1264	992	1152	416	64	816	1	
1264	992	1152	416	64	816	1	
1248	976	1184	432	64	832	1	
1248	976	1184	432	64	832	1	
1248	976	1184	432	64	832	1	
1216	992	1200	400	96	848	1	
1168	1024	1184	384	80	816	1	
1168	1072	1184	368	64	832	1	
1152	1040	1200	336	64	848	1	
1152	1040	1200	336	64	848	1	
1152	1040	1200	336	64	848	1	
1152	1056	1200	304	80	784	1	
1136	1088	1152	336	64	784	1	
1120	1088	1120	352	48	784	1	
1120	1088	1120	352	48	784	1	
1104	1104	1120	304	48	768	1	
1104	1120	1136	320	48	768	1	
1104	1120	1136	320	48	768	1	
1104	1120	1136	320	48	768	1	
1104	1184	1136	304	32	784	1	
1136	1200	1168	288	64	784	1	
1232	1184	1152	320	32	816	1	
1344	1216	1120	272	64	816	1	
1344	1216	1120	272	64	816	1	
1376	1200	1120	288	80	784	1	
1376	1200	1120	288	80	784	1	
1456	1200	1136	240	48	832	1	
1456	1200	1136	240	48	832	1	
1504	1184	1104	224	48	816	1	
1504	1216	1056	176	32	832	1	
1568	1200	1024	192	80	848	1	
1568	1200	1024	192	80	848	1	
1584	1200	992	176	64	816	1	
1584	1200	992	176	64	816	1	
1600	1168	1008	192	80	864	1	
1600	1168	976	208	48	880	1	
1600	1168	976	208	48	880	1	
1600	1168	976	208	48	880	1	
1600	1168	976	208	48	880	1	
1600	1168	976	208	48	880	1	
1600	1168	976	208	48	880	1	
1600	1168	976	208	48	880	1	
1600	1168	976	208	48	880	1	
1600	1168	976	208	48	880	1	
1600	1168	976	208	48	880	1	
1600	1168	976	208	48	880	1	
1600	1168	976	208	48	880	1	
1584	1152	944	208	48	864	1	
1568	1168	944	192	48	848	1	
1504	1184	912	160	48	848	1	
1504	1184	912	160	48	848	1	
1488	1232	928	144	80	848	1	
1568	1184	976	160	64	912	1	
1568	1184	976	160	64	912	1	
1760	1168	992	192	64	944	1	
1840	1120	1056	192	32	1024	1	
1840	1120	1040	192	64	1056	1	
1808	1104	1008	288	80	1072	1	
1808	1104	1008	288	80	1072	1	
1840	1088	976	304	48	1136	1	
1856	1040	928	368	48	1184	1	
1856	1040	928	368	48	1184	1	
1824	1040	912	368	48	1168	1	
1760	1024	880	336	64	1184	1	
1760	1024	880	336	64	1184	1	
1760	1024	880	336	64	1184	1	
1760	1024	880	336	64	1184	1	
1680	1056	880	320	64	1184	1	
1696	1024	880	304	112	1184	1	
1616	1040	848	272	96	1184	1	
1552	1040	848	240	112	1168	1	
1552	992	848	224	96	1120	1	
1552	992	848	224	96	1120	1	
1472	1008	800	192	96	1104	1	
1456	1008	768	192	128	1056	1	
1456	1008	768	192	128	1056	1	
1424	1008	832	208	144	1088	1	
1360	992	816	176	128	1104	1	
1360	992	816	176	128	1104	1	
1296	1008	768	160	128	1120	1	
1216	992	784	128	112	1120	1	
1152	1008	768	96	112	1120	1	
1152	1008	768	96	112	1120	1	
1120	992	736	96	128	1136	1	
1040	976	736	112	96	1104	1	
1040	976	736	112	96	1104	1	
992	976	720	112	80	1104	1	
960	976	736	96	80	1088	1	
960	976	736	96	80	1088	1	
960	960	688	80	64	1072	1	
928	960	688	48	80	1088	1	
928	960	688	48	80	1088	1	
960	960	656	80	64	1072	1	
1040	944	624	48	32	1056	1	
1040	944	624	48	32	1056	1	
1104	960	624	48	96	1072	1	
1104	960	624	48	96	1072	1	
1216	944	608	48	64	1040	1	
1264	960	576	64	80	992	1	
1264	960	576	64	80	992	1	
1312	928	544	64	80	976	1	
1344	960	576	64	64	976	1	
1344	960	576	64	64	976	1	
1360	960	544	64	64	992	1	
1360	960	544	64	48	976	1	
1360	960	544	64	48	976	1	
1392	944	560	80	48	976	1	
1376	944	544	96	64	960	1	
1376	944	544	96	64	960	1	
1392	944	544	64	80	944	1	
1392	944	544	64	80	944	1	
1424	928	544	80	64	960	1	
1360	928	576	64	64	976	1	
1360	928	576	64	64	976	1	
1344	928	592	48	48	912	1	
1360	944	592	64	48	896	1	
1360	944	592	64	48	896	1	
1296	928	624	48	48	928	1	
1296	928	624	48	48	928	1	
1248	928	624	64	80	880	1	
1216	944	608	80	112	912	1	
1216	944	608	48	352	880	1	
1216	944	608	48	352	880	1	
1216	944	608	48	352	880	1	
1200	944	640	64	496	896	1	
1200	944	640	64	496	896	1	
1312	944	704	48	848	896	1	
1312	944	704	48	848	896	1	
1360	976	784	80	912	880	1	
1360	976	784	80	912	880	1	
1408	976	896	64	992	880	1	
1456	1040	1008	32	1040	880	1	
1456	1040	1008	32	1040	880	1	
1456	1024	1104	96	1056	880	1	
1488	1040	1232	48	1072	928	1	
1488	1040	1232	48	1072	928	1	
1488	1072	1296	32	1088	928	1	
1536	1104	1328	64	1088	912	1	
1536	1104	1328	64	1088	912	1	
1536	1104	1328	64	1088	912	1	
1536	1072	1360	96	1040	992	1	
1552	1088	1440	48	1072	992	1	
1552	1088	1440	48	1072	992	1	
1568	1136	1456	32	1120	992	1	
1648	1120	1472	32	1072	1040	1	
1632	1152	1488	48	1040	1040	1	
1632	1152	1488	48	1040	1040	1	
1632	1152	1488	48	1040	1040	1	
1632	1168	1472	32	1088	1088	1	
1632	1152	1504	80	1120	1120	1	
1632	1152	1504	80	1120	1120	1	
1632	1184	1520	112	1120	1152	1	
1632	1168	1504	112	1152	1168	1	
1632	1168	1504	112	1152	1168	1	
1664	1152	1520	128	1104	1168	1	
1664	1152	1520	128	1104	1168	1	
1696	1184	1504	96	1216	1184	1	
1728	1152	1536	128	1392	1232	1	
1744	1184	1488	112	1584	1232	1	
1744	1184	1488	112	1584	1232	1	
1712	1200	1504	128	1712	1232	1	
1712	1200	1504	128	1712	1232	1	
1744	1168	1536	128	1776	1264	1	
1744	1168	1536	128	1776	1264	1	
1712	1168	1600	144	1920	1232	1	
1664	1184	1632	160	2144	1248	1	
1664	1168	1648	176	2560	1248	1	
1664	1168	1648	176	2560	1248	1	
1664	1168	1648	176	2560	1248	1	
1632	1168	1712	160	2992	1216	1	
1632	1152	1728	176	3424	1216	1	
1632	1152	1728	176	3424	1216	1	
1696	1168	1696	176	3744	1168	1	
1696	1168	1696	176	3744	1168	1	
1760	1168	1664	176	4048	1136	1	
1824	1200	1664	160	4256	1104	1	
1824	1200	1664	160	4256	1104	1	
1840	1248	1632	208	4464	1120	1	
1840	1248	1632	208	4464	1120	1	
1872	1216	1664	176	4688	1072	1	
1888	1232	1648	160	5008	1024	1	
1936	1216	1632	176	5424	976	1	
1936	1216	1632	176	5424	976	1	
1936	1216	1632	176	5424	976	1	
1888	1216	1632	144	5872	992	1	
1888	1200	1648	128	6272	976	1	
1888	1200	1648	128	6272	976	1	
1888	1200	1648	128	6272	976	1	
1888	1200	1648	128	6272	976	1	
1840	1216	1600	112	6608	976	1	
1728	1216	1552	96	6976	976	1	
1696	1200	1520	48	7232	928	1	
1696	1200	1520	48	7232	928	1	
1648	1216	1520	96	7472	960	1	
1616	1200	1536	80	7632	944	1	
1552	1232	1568	48	7840	912	1	
1552	1232	1568	48	7840	912	1	
1568	1184	1584	96	7904	880	1	
1504	1200	1616	80	7920	880	1	
1504	1200	1616	80	7920	880	1	
1504	1200	1616	80	7920	880	1	
1504	1184	1664	64	7888	848	1	
1472	1168	1680	64	7808	832	1	
1472	1152	1696	64	7792	848	1	
1472	1152	1696	64	7792	848	1	
1392	1152	1728	64	7696	832	1	
1376	1120	1744	48	7680	800	1	
1376	1120	1744	48	7680	800	1	
1328	1152	1712	48	7856	800	1	
1312	1184	1728	64	7920	784	1	
1312	1184	1728	64	7920	784	1	
1264	1168	1840	64	7984	768	1	
1264	1152	1872	80	8048	768	1	
1264	1152	1872	80	8048	768	1	
1232	1152	1936	48	8032	784	1	
1200	1184	1952	160	8032	768	1	
1200	1184	1952	160	8032	768	1	
1136	1168	2016	208	7984	784	1	
1120	1184	2112	240	7984	784	1	
1056	1200	2208	288	7920	768	1	
1056	1200	2208	288	7920	768	1	
1056	1200	2208	288	7920	768	1	
1040	1168	2256	320	7888	768	1	
1008	1168	2256	336	7856	784	1	
1008	1168	2256	336	7856	784	1	
960	1152	2272	272	7840	768	1	
944	1152	2256	288	7936	800	1	
944	1152	2256	288	7936	800	1	
880	1152	2256	288	8016	784	1	
864	1152	2224	288	8064	816	1	
848	1120	2208	240	8176	816	1	
848	1120	2208	240	8176	816	1	
800	1168	2144	256	8304	816	1	
784	1216	2112	240	8432	832	1	
784	1216	2112	240	8432	832	1	
784	1216	2112	240	8432	832	1	
752	1232	2064	224	8464	832	1	
752	1232	2032	208	8432	848	1	
720	1264	1968	208	8368	832	1	
720	1264	1968	208	8368	832	1	
752	1328	1968	176	8320	832	1	
720	1344	1936	160	8368	848	1	
720	1344	1936	160	8368	848	1	
768	1344	1936	144	8496	832	1	
768	1344	1936	144	8496	832	1	
768	1344	1936	144	8496	832	1	
768	1344	1936	144	8496	832	1	
784	1360	1936	176	8592	832	1	
800	1392	1936	160	8720	848	1	
800	1392	1936	128	8720	832	1	
848	1408	1936	96	8656	848	1	
864	1440	1920	112	8736	864	1	
864	1440	1920	112	8736	864	1	
880	1440	1920	80	8800	848	1	
880	1504	1904	96	9072	864	1	
896	1520	1888	96	9296	864	1	
896	1520	1888	96	9296	864	1	
880	1536	1888	80	9648	880	1	
896	1584	1920	96	9872	864	1	
896	1584	1920	96	9872	864	1	
880	1632	1936	96	10048	896	1	
928	1648	1936	144	10096	896	1	
944	1664	1936	192	10144	864	1	
944	1664	1936	192	10144	864	1	
944	1664	1936	192	10144	864	1	
928	1712	1904	240	10176	848	1	
928	1712	1904	240	10128	864	1	
960	1712	1856	288	10016	880	1	
928	1712	1840	304	9856	848	1	
928	1712	1840	304	9856	848	1	
992	1696	1792	352	9680	816	1	
992	1696	1760	352	9488	848	1	
992	1696	1760	352	9488	848	1	
992	1728	1712	320	9328	880	1	
992	1728	1712	320	9328	880	1	
1072	1696	1632	304	9152	912	1	
1056	1712	1600	320	9056	928	1	
1056	1712	1600	320	9056	928	1	
1056	1712	1600	320	9056	928	1	
1056	1680	1536	272	8960	976	1	
1088	1696	1520	272	8800	1024	1	
1088	1760	1456	256	8640	1040	1	
1088	1776	1424	256	8528	1104	1	
1088	1776	1424	256	8528	1104	1	
1072	1776	1456	256	8448	1088	1	
1072	1776	1456	256	8448	1088	1	
1072	1792	1440	224	8560	1120	1	
1088	1808	1408	256	9072	1136	1	
1088	1824	1440	240	9712	1184	1	
1088	1824	1440	240	9712	1184	1	
1088	1840	1456	208	10144	1216	1	
1088	1840	1456	208	10144	1216	1	
1088	1872	1472	176	10448	1216	1	
1088	1904	1488	192	10656	1216	1	
1088	1936	1504	192	10784	1280	1	
1072	1952	1504	160	10960	1264	1	
1072	1952	1504	160	10960	1264	1	
1024	1984	1536	192	11008	1248	1	
1024	1984	1536	192	11008	1248	1	
1072	1984	1568	160	11104	1248	1	
1072	2000	1568	144	11248	1232	1	
1072	2000	1568	144	11248	1232	1	
1056	2016	1584	112	11360	1264	1	
1056	2016	1600	128	11632	1200	1	
1056	2016	1600	128	11632	1200	1	
1056	2016	1600	128	11632	1200	1	
1072	2032	1632	80	12032	1232	1	
1056	2016	1696	64	12384	1184	1	
1040	2000	1744	80	12784	1200	1	
1056	2016	1792	48	13280	1216	1	
1056	2016	1792	48	13280	1216	1	
1040	2048	1856	64	13632	1248	1	
1040	2048	1856	64	13632	1248	1	
1040	2048	1856	64	13632	1248	1	
992	2064	1824	64	13904	1232	1	
992	2096	1888	64	14112	1248	1	
976	2144	1904	96	14272	1248	1	
1008	2256	1920	80	14480	1264	1	
1008	2256	1920	80	14480	1264	1	
960	2320	1920	80	14576	1312	1	
960	2320	1920	80	14576	1312	1	
944	2384	1952	64	14704	1360	1	
896	2448	1968	64	15056	1392	1	
896	2448	1968	64	15056	1392	1	
912	2512	2000	96	15504	1408	1	
880	2688	2064	96	15856	1392	1	
880	2688	2064	96	15856	1392	1	
896	3184	2080	80	16096	1440	1	
880	3568	2096	96	16144	1456	1	
880	3568	2096	96	16144	1456	1	
880	4176	2144	144	16192	1456	1	
864	4896	2112	128	16384	1456	1	
864	6000	2160	112	16448	1472	1	
864	6000	2160	112	16448	1472	1	
864	6864	2160	144	16592	1488	1	
832	7824	2144	144	16752	1488	1	
832	8480	2128	144	16880	1504	1	
832	8480	2128	144	16880	1504	1	
816	9088	2064	144	17120	1520	1	
816	9088	2064	144	17120	1520	1	
880	9696	2032	160	17280	1552	1	
880	9696	2032	160	17280	1552	1	
848	10464	2048	160	17360	1520	1	
848	10464	2048	160	17360	1520	1	
944	10976	2032	176	17296	1520	1	
1072	11360	2032	160	17200	1504	1	
1136	11856	2048	192	17200	1504	1	
1136	11856	2048	192	17200	1504	1	
1216	12480	2064	224	17152	1520	1	
1360	13024	2096	192	17024	1520	1	
1360	13024	2096	192	17024	1520	1	
1520	13536	2144	192	17184	1552	1	
1520	13536	2144	192	17184	1552	1	
1584	14016	2240	192	17648	1584	1	
1648	14496	2336	208	18208	1600	1	
1648	14496	2336	208	18208	1600	1	
1792	14960	2416	240	18976	1584	1	
1904	15632	2464	224	19600	1568	1	
1904	15632	2464	224	19600	1568	1	
2032	16400	2528	272	20256	1536	1	
2112	17104	2640	272	21488	1552	1	
2112	17104	2640	272	21488	1552	1	
2112	17104	2640	272	21488	1552	1	
2192	17872	2736	272	22448	1536	1	
2240	18512	2800	304	23024	1536	1	
2240	18512	2800	304	23024	1536	1	
2288	19056	2832	320	23632	1504	1	
2352	19376	2896	288	23952	1520	1	
2368	19664	2944	272	24352	1632	1	
2368	19664	2944	272	24352	1632	1	
2352	19920	2992	288	24864	1712	1	
2384	20080	3024	304	25056	1776	1	
2384	20272	3040	256	25120	1824	1	
2384	20272	3040	256	25120	1824	1	
2320	20288	2992	256	25072	1856	1	
2256	20336	2976	240	25072	1872	1	
2256	20336	2976	240	25072	1872	1	
2240	20352	3040	240	25136	1904	1	
2224	20688	3056	256	25552	1888	1	
2192	21312	3072	224	25632	1904	1	
2192	21312	3072	224	25632	1904	1	
2192	21312	3072	224	25632	1904	1	
2176	21776	3152	224	25760	1968	1	
2176	21776	3152	224	25760	1968	1	
2176	21776	3152	224	25760	1968	1	
2144	22784	3296	224	25744	2064	1	
2144	22784	3296	224	25744	2064	1	
2144	23360	3440	256	25648	2160	1	
2112	24336	3504	272	25824	2208	1	
2080	25280	3584	288	25984	2224	1	
2080	25280	3584	288	25984	2224	1	
2176	26000	3616	336	26208	2288	1	
2176	26000	3616	336	26208	2288	1	
2272	27056	3664	336	26544	2352	1	
2272	27056	3664	336	26544	2352	1	
2272	27056	3664	336	26544	2352	1	
2272	27056	3664	336	26544	2352	1	
2272	27056	3664	336	26544	2352	1	
2272	27056	3664	336	26544	2352	1	
2272	27056	3664	336	26544	2352	1	
2272	27056	3664	336	26544	2352	1	
2272	27056	3664	336	26544	2352	1	
2272	27056	3664	336	26544	2352	1	
2272	27056	3664	336	26544	2352	1	
2272	27056	3664	336	26544	2352	1	
2336	27824	3712	352	26912	2432	1	
2480	28336	3840	448	28112	2608	1	
2512	28464	3856	480	28608	2672	1	
2512	28528	3872	592	29936	2720	1	
2816	28368	3872	672	30624	2960	1	
2816	28368	3872	672	30624	2960	1	
3376	28384	3840	720	31216	3376	1	
4000	28240	3824	704	31920	3888	1	
4256	28080	3840	736	32800	4192	1	
4560	27872	3872	688	33328	4448	1	
4800	27568	3856	704	33888	4576	1	
4800	27568	3856	704	33888	4576	1	
4944	27296	3872	720	34368	4752	1	
5056	26912	3920	704	34944	4816	1	
5056	26912	3920	704	34944	4816	1	
5056	26912	3920	704	34944	4816	1	
5056	26912	3920	704	34944	4816	1	
5360	27440	4032	720	36064	5056	1	
6048	28640	4112	752	37536	5264	1	
6048	28640	4112	752	37536	5264	1	
6048	28640	4112	752	37536	5264	1	
6288	29072	4160	768	38448	5408	1	
6496	29696	4288	800	39456	5568	1	
6496	29696	4288	800	39456	5568	1	
6704	30208	4544	848	40160	5728	1	
6832	30608	4800	848	40592	5840	1	
6928	31008	4944	896	41792	5920	1	
6928	31008	4944	896	41792	5920	1	
6944	31600	5104	960	42752	5936	1	
6976	31968	5232	1056	43488	6016	1	
6976	31968	5232	1056	43488	6016	1	
6912	32432	5296	1120	43840	5968	1	
6864	32816	5328	1216	44400	5968	1	
6864	32816	5328	1216	44400	5968	1	
6800	33072	5376	1232	44640	5984	1	
6704	33552	5376	1296	44992	5968	1	
6640	34608	5376	1312	45408	5984	1	
6640	34608	5376	1312	45408	5984	1	
6656	35552	5360	1328	46032	5968	1	
6768	36384	5424	1360	48272	6016	1	
6768	36384	5424	1360	48272	6016	1	
6768	36384	5424	1360	48272	6016	1	
7040	36992	5616	1376	51072	6240	1	
7296	37632	5728	1392	53024	6544	1	
7472	38384	5856	1424	54592	6688	1	
7472	38384	5856	1424	54592	6688	1	
7648	38912	5936	1408	55488	6800	1	
7728	39440	6000	1424	56048	6896	1	
7728	39440	6000	1424	56048	6896	1	
7808	39616	6048	1392	56208	6944	1	
8016	39680	6032	1392	56496	6992	1	
8016	39680	6032	1392	56496	6992	1	
8064	39568	6048	1424	56560	7104	1	
8064	39568	6048	1424	56560	7104	1	
8240	39232	6048	1392	56688	7104	1	
8240	39232	6048	1392	56688	7104	1	
8528	38896	5936	1360	56928	7200	1	
8880	39056	5984	1376	57296	7216	1	
9296	39648	6112	1360	58064	7216	1	
9296	39648	6112	1360	58064	7216	1	
9696	40224	6336	1424	58368	7248	1	
9696	40224	6336	1424	58368	7248	1	
9968	41680	6432	1456	59984	7328	1	
9968	41680	6432	1456	59984	7328	1	
10384	42832	6704	1456	60832	7584	1	
10560	43328	7040	1472	60848	7792	1	
10560	43328	7040	1472	60848	7792	1	
10816	43600	7248	1520	60768	7936	1	
11072	43744	7424	1488	60848	8000	1	
11312	43760	7504	1504	60880	8064	1	
11312	43760	7504	1504	60880	8064	1	
11312	43760	7504	1504	60880	8064	1	
11472	43616	7552	1456	60880	8080	1	
11696	43440	7536	1456	60848	8160	1	
11824	43088	7504	1440	60864	8128	1	
11824	43088	7504	1440	60864	8128	1	
11824	43088	7504	1440	60864	8128	1	
11984	43056	7456	1392	60848	8080	1	
12032	43248	7440	1360	60832	8016	1	
12144	43088	7360	1344	60688	8048	1	
12144	43088	7360	1344	60688	8048	1	
12288	42928	7328	1344	60864	8096	1	
12592	42704	7392	1360	60880	8144	1	
12880	43024	7504	1376	60896	8240	1	
12880	43024	7504	1376	60896	8240	1	
13040	43632	7488	1440	60848	8384	1	
13040	43632	7488	1440	60848	8384	1	
13248	44416	7552	1440	60736	8624	1	
13392	45200	7616	1440	60848	8896	1	
13616	46304	7680	1424	60864	9008	1	
13616	46304	7680	1424	60864	9008	1	
13664	47232	7696	1440	60864	9088	1	
13664	47232	7696	1440	60864	9088	1	
14048	48464	7696	1456	60864	9248	1	
14048	48464	7696	1456	60864	9248	1	
14464	49360	7632	1488	60864	9328	1	
14464	49360	7632	1488	60864	9328	1	
14464	49360	7632	1488	60864	9328	1	
15168	51664	7408	1408	60400	9584	1	
15168	51664	7408	1408	60400	9584	1	
15312	52464	7296	1392	59632	9696	1	
15328	53568	7232	1360	58656	9760	1	
15328	53568	7232	1360	58656	9760	1	
15328	53568	7232	1360	58656	9760	1	
15552	54048	7120	1344	58112	10048	1	
15792	54896	7120	1376	58768	10240	1	
15984	55408	7184	1376	60144	10464	1	
15984	55408	7184	1376	60144	10464	1	
15984	55408	7184	1376	60144	10464	1	
16544	55488	7280	1376	60752	10768	1	
16944	55520	7376	1360	60896	10928	1	
16944	55520	7376	1360	60896	10928	1	
17248	55600	7504	1408	60832	11056	1	
17488	55904	7616	1440	60832	11120	1	
17488	55904	7616	1440	60832	11120	1	
17904	55792	7664	1488	60832	11136	1	
18512	55856	7696	1520	60832	11280	1	
18976	56048	7744	1536	60800	11456	1	
19248	55792	7728	1552	60864	11584	1	
19248	55792	7728	1552	60864	11584	1	
19440	55472	7696	1584	60864	11632	1	
19440	55472	7696	1584	60864	11632	1	
19440	55472	7696	1584	60864	11632	1	
19584	55824	7680	1568	60848	11696	1	
19728	56496	7744	1568	60816	11808	1	
19984	57360	7840	1568	60880	11920	1	
20048	58528	7856	1584	60864	12256	1	
20048	58528	7856	1584	60864	12256	1	
20208	59776	7920	1616	60864	12544	1	
20496	60608	7952	1648	60800	12752	1	
20496	60608	7952	1648	60800	12752	1	
20496	60608	7952	1648	60800	12752	1	
20768	60704	7936	1664	60864	13024	1	
20864	60768	7872	1664	60880	13344	1	
20864	60768	7872	1664	60880	13344	1	
20976	60720	7824	1744	60848	13584	1	
20976	60720	7824	1744	60848	13584	1	
21104	60768	7776	1856	60656	13712	1	
21056	60752	7824	1920	60832	13728	1	
21200	60736	7776	1984	60864	13824	1	
21840	60736	7856	2048	60832	13792	1	
21840	60736	7856	2048	60832	13792	1	
22304	60592	7856	2096	60864	14032	1	
22304	60592	7856	2096	60864	14032	1	
22992	60656	8064	2224	60800	14608	1	
22992	60656	8064	2224	60800	14608	1	
23600	60768	8240	2272	60880	15264	1	
24368	60544	8464	2336	60848	15920	1	
25312	60656	8656	2464	60816	16944	1	
25312	60656	8656	2464	60816	16944	1	
25312	60656	8656	2464	60816	16944	1	
25968	60784	8960	2528	60864	17712	1	
26400	60768	9136	2624	60816	18208	1	
27072	60752	9328	2672	60848	18560	1	
27600	60784	9600	2704	60880	18784	1	
27600	60784	9600	2704	60880	18784	1	
28192	60736	9920	2752	60688	19104	1	
28192	60736	9920	2752	60688	19104	1	
28928	60784	10208	2784	60848	19424	1	
29408	60768	10448	2784	60832	19600	1	
29408	60768	10448	2784	60832	19600	1	
29712	60752	10576	2864	60848	19664	1	
29968	60736	10736	2896	60896	19872	1	
30112	60576	10816	2944	60816	20080	1	
30112	60576	10816	2944	60816	20080	1	
29952	60736	10848	3056	60800	20112	1	
29648	60752	10848	3152	60864	20144	1	
29280	60576	10944	3312	60848	20080	1	
29280	60576	10944	3312	60848	20080	1	
28752	60720	10992	3408	60864	19824	1	
28752	60720	10992	3408	60864	19824	1	
28144	60656	11024	3504	60784	19488	1	
27520	60752	10992	3632	60832	19040	1	
26928	60720	10976	3776	60880	18576	1	
26928	60720	10976	3776	60880	18576	1	
26352	60672	10912	3840	60880	18096	1	
25856	60704	10864	3920	60848	17680	1	
25856	60704	10864	3920	60848	17680	1	
25296	60752	10800	3952	60832	17328	1	
24768	60544	10784	4032	60784	17184	1	
24768	60544	10784	4032	60784	17184	1	
24576	60704	10768	4032	60864	17152	1	
24608	60736	10704	4096	60816	17104	1	
24960	60752	10704	4112	60864	17184	1	
24960	60752	10704	4112	60864	17184	1	
25472	60752	10640	4112	60832	17248	1	
25472	60752	10640	4112	60832	17248	1	
25904	60752	10576	4096	60848	17296	1	
25904	60752	10576	4096	60848	17296	1	
26464	60784	10576	4064	60832	17376	1	
26896	60736	10608	4064	60640	17312	1	
26896	60736	10608	4064	60640	17312	1	
26896	60736	10608	4064	60640	17312	1	
26896	60736	10608	4064	60640	17312	1	
28848	60784	10800	4096	60864	17520	1	
29824	60768	10864	4080	60720	17984	1	
29824	60768	10864	4080	60720	17984	1	
30432	60688	10976	4112	60816	18320	1	
31120	60720	11184	4160	60880	18624	1	
31120	60720	11184	4160	60880	18624	1	
31408	60704	11344	4288	60848	18816	1	
31408	60704	11344	4288	60848	18816	1	
31760	60752	11360	4320	60720	18832	1	
32000	60736	11360	4320	60832	18720	1	
32000	60736	11360	4320	60832	18720	1	
32272	60720	11248	4320	60816	18544	1	
32688	60704	11232	4288	60816	18416	1	
32688	60704	11232	4288	60816	18416	1	
33168	60720	11232	4304	60816	18304	1	
33168	60720	11232	4304	60816	18304	1	
33552	60752	11264	4368	60848	18192	1	
33696	60752	11376	4368	60864	18112	1	
33696	60752	11376	4368	60864	18112	1	
33712	60592	11440	4432	60768	18112	1	
33712	60592	11440	4432	60768	18112	1	
33648	60736	11504	4416	60848	18336	1	
33440	60784	11472	4464	60848	18800	1	
33440	60784	11472	4464	60848	18800	1	
33264	60720	11488	4464	60832	19136	1	
33120	60720	11440	4464	60880	19328	1	
33120	60720	11440	4464	60880	19328	1	
32880	60768	11472	4448	60832	19392	1	
32880	60768	11472	4448	60832	19392	1	
32672	60688	11488	4384	60672	19344	1	
32608	60736	11680	4304	60880	19200	1	
32560	60752	11776	4336	60880	19376	1	
32560	60752	11776	4336	60880	19376	1	
32272	60752	11808	4400	60848	19632	1	
32560	60720	11872	4432	60880	20000	1	
32560	60720	11872	4432	60880	20000	1	
32880	60752	11840	4432	60816	20256	1	
33040	60752	11792	4448	60864	20400	1	
33040	60752	11792	4448	60864	20400	1	
32896	60624	11744	4432	60768	20416	1	
32784	60768	11760	4480	60768	20384	1	
32784	60768	11760	4480	60768	20384	1	
33520	60768	11744	4496	60880	20656	1	
35104	60672	11776	4560	60720	21040	1	
36384	60752	11968	4688	60832	22032	1	
36384	60752	11968	4688	60832	22032	1	
38416	60736	12176	4816	60816	23808	1	
40064	60768	12368	5056	60848	25200	1	
40064	60768	12368	5056	60848	25200	1	
41056	60768	12528	5232	60752	26512	1	
41808	60784	12736	5440	60832	27328	1	
42448	60704	12912	5632	60784	28080	1	
42448	60704	12912	5632	60784	28080	1	
42800	60784	12976	5776	60832	28464	1	
42800	60784	12976	5776	60832	28464	1	
42800	60784	12976	5776	60832	28464	1	
43216	60800	13008	5904	60816	28656	1	
43216	60768	13024	6032	60880	28960	1	
43216	60768	13024	6032	60880	28960	1	
43104	60768	13280	6096	60800	28928	1	
42672	60640	13328	6256	60848	28736	1	
42672	60640	13328	6256	60848	28736	1	
42672	60640	13328	6256	60848	28736	1	
42160	60752	13472	6256	60816	28400	1	
42160	60752	13472	6256	60816	28400	1	
41536	60704	13696	6320	60832	28080	1	
40944	60768	13824	6336	60880	27792	1	
40944	60768	13824	6336	60880	27792	1	
40304	60768	13888	6320	60864	27584	1	
39568	60784	13904	6288	60864	27200	1	
39568	60784	13904	6288	60864	27200	1	
39568	60784	13904	6288	60864	27200	1	
38816	60752	13840	6240	60880	26720	1	
38528	60720	13680	6240	60768	26224	1	
38352	60752	13568	6256	60864	25824	1	
38352	60752	13568	6256	60864	25824	1	
38016	60752	13472	6256	60800	25504	1	
38016	60752	13472	6256	60800	25504	1	
37712	60576	13360	6272	60864	25200	1	
37216	60704	13344	6432	60864	24800	1	
36672	60672	13360	6592	60784	24432	1	
36672	60672	13360	6592	60784	24432	1	
35936	60720	13280	6752	60864	24192	1	
35936	60720	13280	6752	60864	24192	1	
35216	60736	13360	6816	60768	23808	1	
35216	60736	13360	6816	60768	23808	1	
34352	60688	13360	6864	60768	23520	1	
33920	60784	13328	6960	60848	23712	1	
33488	60784	13280	7072	60832	24096	1	
33488	60784	13280	7072	60832	24096	1	
32864	60752	13264	7104	60832	24368	1	
32864	60752	13264	7104	60832	24368	1	
32288	60768	13232	7120	60880	24432	1	
32288	60768	13232	7120	60880	24432	1	
31728	60704	13152	7184	60880	24608	1	
31344	60768	12992	7376	60800	25008	1	
30896	60560	12816	7488	60896	25088	1	
30592	60704	12608	7600	60816	25056	1	
30592	60704	12608	7600	60816	25056	1	
30592	60704	12608	7600	60816	25056	1	
30432	60768	12512	7632	60832	24944	1	
30288	60752	12400	7648	60752	24880	1	
30496	60736	12352	7584	60832	25008	1	
30832	60736	12368	7472	60896	25072	1	
30832	60736	12368	7472	60896	25072	1	
30992	60784	12288	7344	60848	24960	1	
30992	60784	12288	7344	60848	24960	1	
30992	60784	12288	7344	60848	24960	1	
31104	60576	12272	7248	60864	24832	1	
30992	60688	12272	7184	60752	24560	1	
30992	60688	12272	7184	60752	24560	1	
30752	60784	12256	7088	60832	24208	1	
30352	60704	12256	6992	60848	23776	1	
29856	60736	12272	6928	60816	23344	1	
29856	60736	12272	6928	60816	23344	1	
29536	60720	12304	6880	60880	22912	1	
29136	60784	12480	6864	60864	22784	1	
29136	60784	12480	6864	60864	22784	1	
29136	60784	12480	6864	60864	22784	1	
28656	60736	13248	6944	60800	23472	1	
28656	60736	13248	6944	60800	23472	1	
28496	60736	13632	6960	60848	23776	1	
28288	60752	13952	6992	60848	23840	1	
28288	60752	13952	6992	60848	23840	1	
28048	60768	14096	6992	60784	23712	1	
28048	60768	14096	6992	60784	23712	1	
27888	60704	14160	6880	60816	23520	1	
27888	60720	14144	6896	60832	23360	1	
27888	60720	14144	6896	60832	23360	1	
27888	60720	14144	6896	60832	23360	1	
28272	60736	14272	6928	60848	23168	1	
28784	60752	14288	6896	60752	23120	1	
28784	60752	14288	6896	60752	23120	1	
29472	60752	14224	6896	60800	23072	1	
29824	60752	14128	6960	60832	22880	1	
29920	60672	14048	6976	60880	22544	1	
29920	60672	14048	6976	60880	22544	1	
29872	60736	13968	6896	60816	22208	1	
29872	60736	13968	6896	60816	22208	1	
30032	60752	13888	6848	60816	21984	1	
30032	60752	13888	6848	60816	21984	1	
29968	60768	13760	6832	60736	22096	1	
30048	60752	13696	6768	60848	22368	1	
30048	60752	13696	6768	60848	22368	1	
29936	60768	13584	6752	60848	22672	1	
29664	60736	13440	6656	60864	22832	1	
29664	60736	13440	6656	60864	22832	1	
29456	60720	13312	6544	60880	22864	1	
29296	60768	13152	6448	60880	22864	1	
29296	60768	13152	6448	60880	22864	1	
29040	60656	13040	6320	60848	22704	1	
29040	60656	13040	6320	60848	22704	1	
28864	60704	12944	6288	60880	22592	1	
28864	60704	12944	6288	60880	22592	1	
28864	60704	12944	6288	60880	22592	1	
28864	60704	12944	6288	60880	22592	1	
28864	60704	12944	6288	60880	22592	1	
28864	60704	12944	6288	60880	22592	1	
28864	60704	12944	6288	60880	22592	1	
28864	60704	12944	6288	60880	22592	1	
28864	60704	12944	6288	60880	22592	1	
28864	60704	12944	6288	60880	22592	1	
28864	60704	12944	6288	60880	22592	1	
28864	60704	12944	6288	60880	22592	1	
28736	60720	12928	6192	60768	22512	1	
28656	60672	12784	6256	60752	22288	1	
28384	60688	12672	6320	60800	22080	1	
27776	60736	12512	6448	60816	21696	1	
27616	60688	12368	6496	60896	21344	1	
27328	60752	12256	6528	60848	21024	1	
26800	60736	11984	6592	60848	20624	1	
26640	60704	11904	6560	60800	20384	1	
27056	60720	11872	6480	60832	20208	1	
27088	60768	11808	6448	60896	19936	1	
27200	60752	11824	6320	60880	19616	1	
27264	60784	11808	6256	60864	19328	1	
27264	60784	11808	6256	60864	19328	1	
27264	60656	12000	6160	60832	19152	1	
27664	60736	12448	6080	60880	19488	1	
28704	60752	12736	6048	60800	20144	1	
29584	60768	12976	6032	60880	20736	1	
29584	60768	12976	6032	60880	20736	1	
30240	60768	13136	6032	60864	21040	1	
30656	60736	13200	6048	60832	21120	1	
30656	60736	13200	6048	60832	21120	1	
30656	60736	13200	6048	60832	21120	1	
30912	60672	13248	6048	60848	21056	1	
30912	60672	13248	6048	60848	21056	1	
31200	60560	13376	5920	60816	20992	1	
31200	60560	13376	5920	60816	20992	1	
31296	60704	13536	5872	60816	20928	1	
31552	60672	13712	5808	60864	20832	1	
31552	60672	13712	5808	60864	20832	1	
31712	60736	13872	5792	60896	20672	1	
31712	60736	13872	5792	60896	20672	1	
31712	60736	13872	5792	60896	20672	1	
31776	60752	13920	5856	60832	20592	1	
32080	60768	13920	5856	60896	20640	1	
32544	60768	13888	5856	60864	20944	1	
33024	60752	13856	5872	60848	21328	1	
33024	60752	13856	5872	60848	21328	1	
33248	60704	13728	5872	60704	21472	1	
33424	60704	13584	5984	60832	21456	1	
33584	60736	13344	6000	60816	21312	1	
33584	60736	13344	6000	60816	21312	1	
33600	60704	13168	5952	60880	21344	1	
33520	60800	12928	5952	60768	21488	1	
33520	60800	12928	5952	60768	21488	1	
33248	60768	12928	5872	60848	21600	1	
33248	60768	12928	5872	60848	21600	1	
32928	60768	12992	5808	60816	21824	1	
32688	60784	12880	5680	60896	21904	1	
32688	60784	12880	5680	60896	21904	1	
32512	60752	12848	5632	60896	22032	1	
32192	60672	12752	5520	60784	21968	1	
32192	60672	12752	5520	60784	21968	1	
32144	60720	12624	5456	60816	22032	1	
32144	60720	12624	5456	60816	22032	1	
32544	60768	12512	5504	60848	22016	1	
32992	60544	12592	5552	60864	22288	1	
32992	60544	12592	5552	60864	22288	1	
33200	60736	12544	5552	60848	22640	1	
33120	60720	12544	5552	60832	22880	1	
33120	60720	12544	5552	60832	22880	1	
33024	60768	12480	5552	60848	22880	1	
32896	60640	12432	5568	60848	22896	1	
32896	60640	12432	5568	60848	22896	1	
32560	60704	12320	5536	60848	22720	1	
32096	60736	12224	5456	60896	22544	1	
32096	60736	12224	5456	60896	22544	1	
32096	60736	12224	5456	60896	22544	1	
31664	60752	12144	5392	60816	22272	1	
31184	60752	11984	5344	60832	21872	1	
30848	60768	11792	5232	60880	21536	1	
30496	60720	11696	5152	60816	21328	1	
30496	60720	11696	5152	60816	21328	1	
30496	60720	11696	5152	60816	21328	1	
30000	60784	11616	5152	60896	21104	1	
29376	60752	11440	5136	60864	20880	1	
28816	60688	11376	5072	60864	20640	1	
28512	60688	11328	5040	60848	20304	1	
28256	60720	11280	5056	60768	20112	1	
28256	60720	11280	5056	60768	20112	1	
28256	60720	11280	5056	60768	20112	1	
28112	60560	11200	5072	60400	20000	1	
28112	60560	11200	5072	60400	20000	1	
28224	60736	11280	5072	60336	19888	1	
28736	60752	11504	5120	60720	19712	1	
28736	60752	11504	5120	60720	19712	1	
29360	60752	11776	5232	60816	19728	1	
30128	60768	12064	5328	60880	19888	1	
30128	60768	12064	5328	60880	19888	1	
30128	60768	12064	5328	60880	19888	1	
30768	60720	12240	5344	60800	20240	1	
31088	60720	12336	5328	60848	20416	1	
31168	60752	12336	5312	60832	20464	1	
31008	60736	12272	5376	60848	20432	1	
31008	60736	12272	5376	60848	20432	1	
30736	60752	12288	5392	60880	20256	1	
30736	60752	12288	5392	60880	20256	1	
30400	60752	12224	5344	60864	19904	1	
29936	60784	12224	5296	60688	19520	1	
29936	60784	12224	5296	60688	19520	1	
29328	60784	12304	5232	60832	19232	1	
28688	60768	12336	5168	60848	19024	1	
28688	60768	12336	5168	60848	19024	1	
28064	60784	12256	5088	60896	18768	1	
28064	60784	12256	5088	60896	18768	1	
27616	60768	12096	4992	60864	18496	1	
27248	60736	12016	4848	60880	18208	1	
27248	60736	12016	4848	60880	18208	1	
26768	60720	11872	4816	60864	17824	1	
26608	60640	11728	4832	60848	17552	1	
26608	60640	11728	4832	60848	17552	1	
26608	60736	11632	4816	60640	17504	1	
26432	60752	11504	4800	60624	17680	1	
26432	60752	11504	4800	60624	17680	1	
26224	60576	11360	4768	60384	17728	1	
26224	60576	11360	4768	60384	17728	1	
26224	60576	11360	4768	60384	17728	1	
26208	60704	11184	4832	60048	17792	1	
26288	60672	11136	4896	59504	17728	1	
26288	60672	11136	4896	59504	17728	1	
26192	60736	10960	4944	59760	17568	1	
26016	60768	10992	4992	60832	17488	1	
26016	60768	10992	4992	60832	17488	1	
26064	60768	11056	5072	60752	17408	1	
26240	60704	11152	5056	60848	17280	1	
26240	60704	11152	5056	60848	17280	1	
26368	60736	11360	5088	60832	17168	1	
26368	60736	11360	5088	60832	17168	1	
26400	60720	11536	5136	60864	17040	1	
26432	60592	11712	5168	60880	16960	1	
26528	60736	11824	5120	60864	16880	1	
26528	60736	11824	5120	60864	16880	1	
26528	60736	11824	5120	60864	16880	1	
26528	60736	11824	5120	60864	16880	1	
26528	60736	11824	5120	60864	16880	1	
26832	60736	12144	5040	60640	17280	1	
26896	60768	12192	4992	60176	17504	1	
26864	60736	12224	4928	60816	17728	1	
26800	60752	12240	4880	60832	17872	1	
26800	60752	12240	4880	60832	17872	1	
26800	60752	12240	4880	60832	17872	1	
26592	60704	12176	4912	60880	18000	1	
26592	60704	12176	4912	60880	18000	1	
26272	60752	12128	4944	60672	17968	1	
26272	60752	12128	4944	60672	17968	1	
25824	60768	12080	4960	60848	17888	1	
25344	60752	12016	4944	60848	17792	1	
24944	60720	11968	4944	60832	17664	1	
24944	60720	11968	4944	60832	17664	1	
24592	60704	11936	4912	60832	17360	1	
24112	60704	11952	4848	60864	17072	1	
24112	60704	11952	4848	60864	17072	1	
23648	60768	11952	4864	60752	16864	1	
23168	60720	12048	4896	60816	16544	1	
23168	60720	12048	4896	60816	16544	1	
22656	60736	12240	4848	60848	16176	1	
22656	60736	12240	4848	60848	16176	1	
22160	60720	12368	4752	60832	15776	1	
21664	60752	12448	4752	60864	15520	1	
21664	60752	12448	4752	60864	15520	1	
21376	60704	12448	4720	60864	15296	1	
21040	60768	12432	4688	60880	15216	1	
21040	60768	12432	4688	60880	15216	1	
21040	60768	12432	4688	60880	15216	1	
21120	60752	12304	4768	60880	15344	1	
21104	60736	12192	4752	60704	15312	1	
21008	60672	12144	4704	60848	15280	1	
21152	60768	12128	4672	60848	15232	1	
21152	60768	12128	4672	60848	15232	1	
21280	60784	12080	4640	60864	15152	1	
21280	60784	12080	4640	60864	15152	1	
21616	60736	12016	4624	60864	15152	1	
22096	60704	11968	4592	60848	15264	1	
22096	60704	11968	4592	60848	15264	1	
22416	60784	11952	4560	60864	15408	1	
22416	60784	11952	4560	60864	15408	1	
22544	60768	11792	4624	60880	15440	1	
22608	60784	11760	4688	60832	15488	1	
22608	60784	11760	4688	60832	15488	1	
22640	60720	11744	4720	60832	15488	1	
22640	60704	11664	4768	60816	15376	1	
22832	60784	11584	4720	60880	15200	1	
22832	60784	11584	4720	60880	15200	1	
23392	60560	11552	4768	60768	14928	1	
23392	60560	11552	4768	60768	14928	1	
24288	60672	11536	4736	60896	14880	1	
24288	60672	11536	4736	60896	14880	1	
25312	60752	11472	4832	60848	15168	1	
26480	60608	11488	4944	60832	15712	1	
27216	60736	11408	5024	60864	16224	1	
27216	60736	11408	5024	60864	16224	1	
27728	60736	11248	5056	60816	16640	1	
27728	60736	11248	5056	60816	16640	1	
27728	60736	11248	5056	60816	16640	1	
28512	60784	11104	5040	60848	17184	1	
28512	60784	11104	5040	60848	17184	1	
28736	60720	11104	5024	60848	17232	1	
28736	60720	11104	5024	60848	17232	1	
28768	60752	11264	4976	60848	17184	1	
28672	60704	11600	4992	60848	17248	1	
28672	60704	11600	4992	60848	17248	1	
28528	60752	11888	5088	60864	17392	1	
28352	60752	12064	5136	60880	17376	1	
28080	60768	12096	5200	60848	17200	1	
28080	60768	12096	5200	60848	17200	1	
27648	60784	12176	5184	60768	16976	1	
27648	60784	12176	5184	60768	16976	1	
27408	60656	12224	5152	60848	16656	1	
26928	60720	12176	5056	60864	16496	1	
26928	60720	12176	5056	60864	16496	1	
26672	60752	12032	5040	60880	16416	1	
26672	60752	12032	5040	60880	16416	1	
26320	60784	11792	4832	60112	16032	1	
26320	60784	11792	4832	60112	16032	1	
26320	60784	11792	4832	60112	16032	1	
26128	60736	11648	4656	59392	15936	1	
25856	60672	11504	4592	58592	15888	1	
25456	60688	11440	4496	58128	15936	1	
25456	60688	11440	4496	58128	15936	1	
25200	60736	11360	4400	59648	15904	1	
25200	60736	11360	4400	59648	15904	1	
25200	60736	11360	4400	59648	15904	1	
25120	60752	11328	4400	60848	15792	1	
24928	60736	11280	4336	60784	15680	1	
24960	60752	11184	4320	60832	15584	1	
24928	60720	11072	4256	60784	15392	1	
24928	60720	11072	4256	60784	15392	1	
24768	60784	10992	4224	60864	15104	1	
24768	60784	10992	4224	60864	15104	1	
24512	60752	10848	4160	60864	14816	1	
24480	60736	10640	4096	60864	14672	1	
24480	60736	10640	4096	60864	14672	1	
24656	60688	10480	4080	60880	14592	1	
24960	60688	10400	4096	60832	14528	1	
25136	60736	10464	4080	60768	14656	1	
25136	60736	10464	4080	60768	14656	1	
25552	60528	10640	4048	60832	15136	1	
25552	60528	10640	4048	60832	15136	1	
25792	60720	10752	3984	60864	15408	1	
25840	60720	10880	3952	60864	15680	1	
25840	60720	10880	3952	60864	15680	1	
25680	60736	11072	3904	60880	15760	1	
25680	60736	11072	3904	60880	15760	1	
25600	60800	11232	3824	60864	15840	1	
25424	60704	11424	3840	60800	15776	1	
25424	60704	11424	3840	60800	15776	1	
25200	60768	11488	3808	60848	15664	1	
24864	60768	11520	3744	60848	15504	1	
24864	60768	11520	3744	60848	15504	1	
24864	60768	11520	3744	60848	15504	1	
24416	60784	11536	3776	60848	15296	1	
23904	60736	11520	3712	60672	15024	1	
23376	60752	11424	3712	60640	14656	1	
22816	60640	11376	3680	60848	14336	1	
22816	60640	11376	3680	60848	14336	1	
22416	60736	11360	3632	60848	13936	1	
22256	60736	11360	3616	60864	13648	1	
22256	60736	11360	3616	60864	13648	1	
22304	60768	11344	3584	60864	13488	1	
22304	60768	11344	3584	60864	13488	1	
22304	60768	11344	3584	60864	13488	1	
22880	60736	11168	3488	60704	13584	1	
23152	60688	11200	3440	60832	13584	1	
23152	60688	11200	3440	60832	13584	1	
23152	60688	11200	3440	60832	13584	1	
23312	60752	11264	3472	60864	13552	1	
23344	60688	11344	3504	60736	13536	1	
23376	60736	11328	3632	60480	13616	1	
23376	60736	11328	3632	60480	13616	1	
23376	60736	11328	3632	60480	13616	1	
23456	60768	11232	3776	60224	13776	1	
23408	60784	11136	4000	59808	13920	1	
23408	60784	11136	4000	59808	13920	1	
23312	60736	11040	4064	59552	13984	1	
23328	60720	10960	4176	59424	14112	1	
23264	60768	10944	4240	58752	14176	1	
23264	60768	10944	4240	58752	14176	1	
23264	60720	11024	4272	58448	14176	1	
23264	60720	11024	4272	58448	14176	1	
23264	60752	11120	4272	58976	14176	1	
23120	60672	11280	4240	58928	14240	1	
23120	60672	11280	4240	58928	14240	1	
22896	60752	11424	4272	58512	14576	1	
22640	60768	11456	4304	58016	15024	1	
22416	60688	11488	4400	58368	15392	1	
22416	60688	11488	4400	58368	15392	1	
22416	60688	11488	4400	58368	15392	1	
22256	60736	11536	4416	58208	15712	1	
22256	60736	11536	4416	58208	15712	1	
21984	60768	11600	4384	57824	15840	1	
21888	60656	11632	4416	57104	15824	1	
21792	60736	11584	4448	56112	15760	1	
21632	60768	11552	4432	55296	15824	1	
21632	60768	11552	4432	55296	15824	1	
21440	60752	11552	4448	54416	15840	1	
21408	60768	11488	4480	53504	15888	1	
21408	60768	11488	4480	53504	15888	1	
21424	60720	11344	4464	52800	15872	1	
21728	60512	11264	4464	52032	16048	1	
21728	60512	11264	4464	52032	16048	1	
21904	60016	11200	4464	51328	16080	1	
21920	59680	11120	4400	50944	16080	1	
21968	59456	11136	4384	50272	16144	1	
21968	59456	11136	4384	50272	16144	1	
21904	59216	11232	4368	49616	16160	1	
21808	59296	11280	4352	48912	16144	1	
21808	59296	11280	4352	48912	16144	1	
21936	59840	11360	4288	48720	16064	1	
21936	59840	11360	4288	48720	16064	1	
21936	59840	11360	4288	48720	16064	1	
21936	59840	11360	4288	48720	16064	1	
22304	60688	11680	4384	48960	15920	1	
22304	60720	11728	4400	49216	15760	1	
22304	60736	11680	4400	49872	15584	1	
22304	60736	11680	4400	49872	15584	1	
22208	60704	11616	4336	50864	15328	1	
22544	60752	11520	4304	51744	15136	1	
22544	60752	11520	4304	51744	15136	1	
22944	60752	11440	4192	52112	15008	1	
24272	60752	11440	4144	52304	15040	1	
24272	60752	11440	4144	52304	15040	1	
24272	60752	11440	4144	52304	15040	1	
25792	60768	11456	4112	52304	15232	1	
25792	60768	11456	4112	52304	15232	1	
26864	60704	11552	4176	52496	15344	1	
27792	60784	11664	4176	52832	15360	1	
28336	60752	11632	4192	53584	15248	1	
28640	60784	11520	4192	53760	15008	1	
28640	60784	11520	4192	53760	15008	1	
28688	60752	11376	4128	53584	14752	1	
28704	60784	11200	4080	53056	14480	1	
28704	60784	11200	4080	53056	14480	1	
28496	60496	11056	4032	52752	14288	1	
28192	60016	10880	3984	52240	14192	1	
28192	60016	10880	3984	52240	14192	1	
27952	59344	10656	3872	51408	14048	1	
27952	59344	10656	3872	51408	14048	1	
28016	58672	10432	3792	50528	13824	1	
28304	58288	10192	3696	49696	13808	1	
28304	58288	10192	3696	49696	13808	1	
28880	58048	10016	3584	49008	13728	1	
29472	58256	9904	3488	50176	13776	1	
29472	58256	9904	3488	50176	13776	1	
29472	58256	9904	3488	50176	13776	1	
29808	57936	9824	3392	50864	13808	1	
30064	58128	9760	3328	51056	13840	1	
30352	58496	9792	3264	51136	13856	1	
30432	59680	9824	3152	51008	13872	1	
30432	59680	9824	3152	51008	13872	1	
30464	60304	9952	3072	51152	13776	1	
30464	60304	9952	3072	51152	13776	1	
30464	60304	9952	3072	51152	13776	1	
30464	60304	9952	3072	51152	13776	1	
30464	60304	9952	3072	51152	13776	1	
30464	60304	9952	3072	51152	13776	1	
30464	60304	9952	3072	51152	13776	1	
30464	60304	9952	3072	51152	13776	1	
30464	60304	9952	3072	51152	13776	1	
30464	60304	9952	3072	51152	13776	1	
30464	60304	9952	3072	51152	13776	1	
30464	60304	9952	3072	51152	13776	1	
30464	60304	9952	3072	51152	13776	1	
30368	60560	9952	3040	50864	13632	1	
29904	60656	10016	3040	49984	13216	1	
29904	60656	10016	3040	49984	13216	1	
30256	60720	10064	2992	49504	13072	1	
30256	60720	10064	2992	49504	13072	1	
30256	60720	10064	2992	49504	13072	1	
31552	60784	10112	2928	48896	13808	1	
31904	60704	10112	2864	48800	14048	1	
32112	60224	10048	2864	48640	14144	1	
31776	59632	9856	2960	51216	14112	1	
31392	59616	9792	3120	53248	14048	1	
30992	59424	9776	3184	54704	13904	1	
29952	59504	9664	3264	56336	13616	1	
29504	59968	9584	3264	56752	13424	1	
29200	60672	9552	3280	56704	13280	1	
29200	60672	9552	3280	56704	13280	1	
29344	60736	9440	3312	56816	13344	1	
29888	60672	9440	3344	57424	13696	1	
30688	60752	9488	3408	58496	14368	1	
31264	60608	9488	3472	60064	15008	1	
31264	60608	9488	3472	60064	15008	1	
31616	60736	9648	3488	60832	15568	1	
31824	60752	9808	3504	60864	15952	1	
31824	60752	9808	3504	60864	15952	1	
31888	60768	9888	3488	60816	16192	1	
31968	60784	10112	3456	60864	16320	1	
31968	60784	10112	3456	60864	16320	1	
31968	60752	10240	3440	60848	16400	1	
31856	60784	10512	3424	60896	16432	1	
31856	60784	10512	3424	60896	16432	1	
31520	60784	10656	3424	60816	16320	1	
31520	60784	10656	3424	60816	16320	1	
31152	60736	10864	3392	60800	16288	1	
30880	60672	11024	3360	60848	16096	1	
30736	60768	11120	3376	60896	15936	1	
30496	60736	11184	3440	60864	15920	1	
30496	60736	11184	3440	60864	15920	1	
30368	60752	11216	3536	60704	16288	1	
30304	60592	11296	3712	60288	16496	1	
30304	60592	11296	3712	60288	16496	1	
29968	60752	11344	3824	59904	16608	1	
29632	60768	11328	3808	59280	16624	1	
29344	60768	11216	3840	58832	16512	1	
29344	60768	11216	3840	58832	16512	1	
28944	60768	11136	3840	58944	16416	1	
28480	60768	10992	3792	59616	16272	1	
27904	60768	10848	3776	60128	16128	1	
27904	60768	10848	3776	60128	16128	1	
27280	60784	10720	3744	60384	15904	1	
27280	60784	10720	3744	60384	15904	1	
26592	60752	10592	3696	60192	15648	1	
25824	60752	10512	3664	59664	15328	1	
25824	60752	10512	3664	59664	15328	1	
25024	60736	10400	3648	59392	14992	1	
24272	60768	10304	3616	59456	14688	1	
24272	60768	10304	3616	59456	14688	1	
23536	60688	10176	3600	59152	14432	1	
23536	60688	10176	3600	59152	14432	1	
23008	60736	10176	3568	58640	14128	1	
23008	60736	10176	3568	58640	14128	1	
22544	60336	10112	3504	58016	13808	1	
22544	60336	10112	3504	58016	13808	1	
22336	59840	10064	3456	57280	13600	1	
22096	59072	10000	3408	56272	13264	1	
22096	59072	10000	3408	56272	13264	1	
22096	59072	10000	3408	56272	13264	1	
21440	57680	9760	3248	53568	12656	1	
21440	57680	9760	3248	53568	12656	1	
21312	58064	9600	3168	52192	12432	1	
21504	58608	9440	3136	51120	12256	1	
21504	58608	9440	3136	51120	12256	1	
21872	59840	9280	3072	51072	12176	1	
21872	59840	9280	3072	51072	12176	1	
21872	59840	9280	3072	51072	12176	1	
22048	60736	9104	3024	51456	12256	1	
22368	60736	9024	3008	51840	12240	1	
22864	60752	9136	3024	53216	12800	1	
23872	60768	9360	3104	55088	13648	1	
23872	60768	9360	3104	55088	13648	1	
24416	60752	9712	3120	57008	14256	1	
24816	60768	9952	3104	58048	14720	1	
24816	60768	9952	3104	58048	14720	1	
24944	60368	10112	3088	58560	15040	1	
24944	60368	10112	3088	58560	15040	1	
24896	60064	10144	3040	58736	15184	1	
24896	60064	10144	3040	58736	15184	1	
24752	59584	10112	3008	58912	15216	1	
24448	59024	10128	2928	59312	15136	1	
24448	59024	10128	2928	59312	15136	1	
24016	58656	10080	2912	59984	14992	1	
24016	58656	10080	2912	59984	14992	1	
23808	58640	9968	2848	60672	14816	1	
23664	59024	9904	2736	60832	14832	1	
23664	59024	9904	2736	60832	14832	1	
23680	59664	9904	2720	60464	15216	1	
23680	59664	9904	2720	60464	15216	1	
23520	60016	9840	2704	59968	15456	1	
23744	60320	9792	2656	59312	15648	1	
23744	60320	9792	2656	59312	15648	1	
23984	60224	9744	2672	58464	15728	1	
24128	59792	9648	2640	57568	15792	1	
24128	59120	9728	2640	56720	15680	1	
24128	59120	9728	2640	56720	15680	1	
24128	59120	9728	2640	56720	15680	1	
23968	58544	9856	2640	55728	15520	1	
23744	58016	9904	2688	55040	15296	1	
23424	57248	9888	2704	54336	15024	1	
23424	57248	9888	2704	54336	15024	1	
23088	56416	9856	2672	53616	14736	1	
23088	56416	9856	2672	53616	14736	1	
23008	55904	9872	2672	52608	14384	1	
23008	55904	9872	2672	52608	14384	1	
22816	55392	9920	2656	51584	14160	1	
22592	54800	9952	2720	51008	14096	1	
22352	54608	9904	2704	50608	13968	1	
22352	54608	9904	2704	50608	13968	1	
22480	54160	9888	2736	51232	14160	1	
23136	53824	9936	2736	51696	14800	1	
23136	53824	9936	2736	51696	14800	1	
23472	53728	10000	2752	51952	15104	1	
23792	53872	10240	2720	52000	15440	1	
23984	54336	10576	2736	52656	15680	1	
23984	54416	10880	2704	54064	15824	1	
23984	54416	10880	2704	54064	15824	1	
23984	54416	10880	2704	54064	15824	1	
23984	54416	10880	2704	54064	15824	1	
23984	54416	10880	2704	54064	15824	1	
24480	54672	11312	2752	56400	15888	1	
24816	55024	11552	2864	57728	15968	1	
25056	55904	11696	3024	58640	16016	1	
25104	56976	11760	3104	59264	15856	1	
25104	56976	11760	3104	59264	15856	1	
25024	57984	11856	3152	59440	15696	1	
24816	58432	11840	3280	59264	15472	1	
24816	58432	11840	3280	59264	15472	1	
24528	58608	11888	3360	59120	15264	1	
24256	58656	11792	3376	58768	14928	1	
24256	58656	11792	3376	58768	14928	1	
24256	58656	11792	3376	58768	14928	1	
24256	58656	11792	3376	58768	14928	1	
23856	58912	11792	3520	57968	14784	1	
23600	58672	11744	3536	56976	14704	1	
23504	58896	11744	3584	56032	14624	1	
23504	58896	11744	3584	56032	14624	1	
23488	58960	11824	3632	55040	14560	1	
23680	58720	11760	3600	54560	14512	1	
23680	58720	11760	3600	54560	14512	1	
23680	58352	11664	3584	54512	14448	1	
23520	57888	11504	3552	54992	14384	1	
23344	57344	11328	3488	55440	14288	1	
23056	56576	11168	3456	55504	14080	1	
23056	56576	11168	3456	55504	14080	1	
22864	55840	10960	3440	55648	13856	1	
22864	55840	10960	3440	55648	13856	1	
22864	55840	10960	3440	55648	13856	1	
22528	55344	10752	3392	56016	13648	1	
22256	55360	10624	3440	57536	13488	1	
22256	55360	10624	3440	57536	13488	1	
21872	56016	10544	3456	58784	13376	1	
21696	56464	10496	3392	59680	13392	1	
21696	56464	10496	3392	59680	13392	1	
21440	56480	10336	3392	59824	13296	1	
21232	56480	10208	3360	59520	13264	1	
21232	56480	10208	3360	59520	13264	1	
21152	56880	10208	3328	58976	13264	1	
20768	57264	10208	3312	58176	13152	1	
20528	58112	10272	3296	57200	12976	1	
20528	58112	10272	3296	57200	12976	1	
20528	58112	10272	3296	57200	12976	1	
20448	58704	10272	3296	56144	12880	1	
20384	58800	10272	3264	55696	12832	1	
20288	58672	10192	3264	55392	12704	1	
20208	58448	10128	3200	54976	12608	1	
20208	58448	10128	3200	54976	12608	1	
20224	58176	10096	3184	54224	12608	1	
20224	58176	10096	3184	54224	12608	1	
20640	57952	10080	3200	53552	12896	1	
21392	58256	10016	3184	53712	13536	1	
21392	58256	10016	3184	53712	13536	1	
21392	58256	10016	3184	53712	13536	1	
23040	59344	10048	3120	56000	14864	1	
23040	59344	10048	3120	56000	14864	1	
23456	60096	10112	3072	56608	15296	1	
23520	60208	10128	2960	57200	15520	1	
23520	60208	10128	2960	57200	15520	1	
23520	60208	10128	2960	57200	15520	1	
23520	60208	10128	2960	57200	15520	1	
23296	59600	9968	2832	57424	15568	1	
23040	58928	9856	2720	57712	15440	1	
22688	58048	9776	2640	57648	15216	1	
22336	57392	9696	2560	57296	15024	1	
22336	57392	9696	2560	57296	15024	1	
21920	57136	9632	2496	56704	14928	1	
21472	57184	9552	2432	55792	14736	1	
21472	57184	9552	2432	55792	14736	1	
21472	57184	9552	2432	55792	14736	1	
20944	56880	9488	2336	55088	14464	1	
20368	56432	9376	2256	55040	14128	1	
19888	55808	9216	2224	55296	13824	1	
19488	55280	9056	2144	55504	13568	1	
19488	55280	9056	2144	55504	13568	1	
19216	54832	8944	2080	55344	13488	1	
19216	54832	8944	2080	55344	13488	1	
19072	54576	8864	2048	55584	13264	1	
19392	54560	9024	2080	56016	13168	1	
19392	54560	9024	2080	56016	13168	1	
19936	54432	9232	2096	55984	13136	1	
19936	54432	9232	2096	55984	13136	1	
20528	54192	9376	2128	55776	13104	1	
21184	53616	9440	2160	55504	13168	1	
21184	53616	9440	2160	55504	13168	1	
21520	52816	9600	2096	55216	13088	1	
21696	51776	9680	2064	54864	13024	1	
21696	51776	9680	2064	54864	13024	1	
21696	50784	9712	2048	54496	12912	1	
21600	49680	9840	2032	54464	12752	1	
21552	48880	9904	2016	54416	12576	1	
21552	48880	9904	2016	54416	12576	1	
21408	49168	9904	2000	54656	12448	1	
21408	49168	9904	2000	54656	12448	1	
21360	49536	9872	2048	56672	12400	1	
21168	50912	9840	2096	58016	12256	1	
21168	50912	9840	2096	58016	12256	1	
21168	50912	9840	2096	58016	12256	1	
21072	51936	9760	2144	58800	12128	1	
21072	51936	9760	2144	58800	12128	1	
21056	52480	9728	2144	59056	12112	1	
21328	52736	9680	2176	58832	12240	1	
21488	52736	9536	2208	58480	12256	1	
21632	52752	9424	2208	58176	12272	1	
21632	52752	9424	2208	58176	12272	1	
21744	52688	9264	2192	58160	12288	1	
21744	52688	9264	2192	58160	12288	1	
21760	52816	9120	2144	57904	12304	1	
21760	52816	9120	2144	57904	12304	1	
21904	52544	8944	2112	57488	12352	1	
22016	52336	8800	2096	56816	12400	1	
22208	52304	8624	2096	56192	12480	1	
22208	52304	8624	2096	56192	12480	1	
22496	52000	8544	2064	55696	12528	1	
22640	51648	8432	2048	55152	12672	1	
22640	51648	8432	2048	55152	12672	1	
22576	51328	8272	2000	54400	12704	1	
22368	51296	8160	2000	53424	12736	1	
22368	51296	8160	2000	53424	12736	1	
22368	51296	8160	2000	53424	12736	1	
22160	51600	8112	2000	52336	12704	1	
21472	51296	7968	2048	50064	12656	1	
21360	50976	7904	2080	49008	12688	1	
21360	50976	7904	2080	49008	12688	1	
21360	50976	7904	2080	49008	12688	1	
21296	51056	7840	2112	48784	13008	1	
21472	51568	7840	2192	48848	13392	1	
21472	51568	7840	2192	48848	13392	1	
21808	52272	7792	2240	48688	13712	1	
22032	52864	7728	2272	48496	13904	1	
22320	53408	7664	2288	48016	14064	1	
22320	53408	7664	2288	48016	14064	1	
22432	53728	7600	2304	47536	14160	1	
22432	53728	7600	2304	47536	14160	1	
22656	53648	7536	2352	47440	14272	1	
22656	53648	7536	2352	47440	14272	1	
23024	53360	7584	2320	47392	14288	1	
23200	53072	7664	2336	47312	14224	1	
23248	52496	7840	2320	47888	14112	1	
23120	51984	7968	2336	48848	13952	1	
23120	51984	7968	2336	48848	13952	1	
22832	51696	8048	2336	49344	13696	1	
22832	51696	8048	2336	49344	13696	1	
22592	51328	8096	2352	49552	13472	1	
22368	51312	8160	2320	49904	13216	1	
22160	51184	8128	2304	50384	13040	1	
22128	51728	8144	2304	50704	12944	1	
22128	51728	8144	2304	50704	12944	1	
22128	51728	8144	2304	50704	12944	1	
21968	52112	8096	2288	51216	12880	1	
21920	52944	8080	2272	52928	12800	1	
21920	52944	8080	2272	52928	12800	1	
21728	53248	8064	2256	54512	12704	1	
21728	53248	8064	2256	54512	12704	1	
21456	53136	8032	2224	55168	12608	1	
21216	52864	7920	2160	55712	12496	1	
21216	52864	7920	2160	55712	12496	1	
20976	52352	7792	2096	56048	12432	1	
20976	52352	7792	2096	56048	12432	1	
20800	52208	7712	2048	55968	12416	1	
20624	52352	7664	2064	55472	12336	1	
20512	52880	7792	2096	54720	12192	1	
20512	52880	7792	2096	54720	12192	1	
20384	52928	7840	2128	54096	12096	1	
20384	52928	7840	2128	54096	12096	1	
20240	52976	7920	2160	53680	12128	1	
20128	53184	8032	2192	53328	12336	1	
20128	53184	8032	2192	53328	12336	1	
19872	53648	8240	2208	53840	12816	1	
19872	53648	8240	2208	53840	12816	1	
19872	53648	8240	2208	53840	12816	1	
19968	53504	8304	2256	53552	12992	1	
20192	53232	8432	2256	53328	13184	1	
20384	52720	8480	2272	53472	13360	1	
20384	52720	8480	2272	53472	13360	1	
20384	52720	8480	2272	53472	13360	1	
20384	52720	8480	2272	53472	13360	1	
20592	51392	8576	2272	55264	13424	1	
20592	51392	8576	2272	55264	13424	1	
20784	50656	8800	2288	55472	13456	1	
21200	49744	8992	2288	55216	13648	1	
21440	48768	9104	2288	54592	13776	1	
21440	48768	9104	2288	54592	13776	1	
21568	47952	9136	2336	53824	13872	1	
21568	47952	9136	2336	53824	13872	1	
21568	47952	9136	2336	53824	13872	1	
21776	46896	9168	2336	52976	13824	1	
21984	46720	9216	2384	52928	13776	1	
21984	46720	9216	2384	52928	13776	1	
22368	47312	9232	2400	53184	13648	1	
22640	48384	9200	2416	53424	13504	1	
22912	49792	9104	2496	53360	13520	1	
22912	49792	9104	2496	53360	13520	1	
22912	51200	9136	2512	53440	13488	1	
22832	52464	9152	2512	54032	13440	1	
22832	52464	9152	2512	54032	13440	1	
22656	53424	9232	2496	54816	13296	1	
22656	53424	9232	2496	54816	13296	1	
22384	54112	9280	2480	55120	13152	1	
22048	54416	9248	2512	54912	12896	1	
22048	54416	9248	2512	54912	12896	1	
21744	54560	9280	2480	54400	12688	1	
21632	54592	9296	2528	53680	12448	1	
21632	54592	9296	2528	53680	12448	1	
21616	55056	9376	2688	52976	12288	1	
21520	55568	9520	2768	53056	12048	1	
21520	55568	9520	2768	53056	12048	1	
21520	55568	9520	2768	53056	12048	1	
21408	56544	9552	2880	54208	11872	1	
21200	56976	9600	2992	55344	11712	1	
21200	56976	9600	2992	55344	11712	1	
21040	57504	9552	3040	56336	11520	1	
21040	57504	9552	3040	56336	11520	1	
20848	57744	9472	3120	56752	11280	1	
20848	57744	9472	3120	56752	11280	1	
20512	58512	9376	3168	57472	11072	1	
20224	58928	9280	3152	58912	10912	1	
20096	59072	9136	3120	59488	10784	1	
20096	59072	9136	3120	59488	10784	1	
20064	58832	8976	3104	59456	10688	1	
20064	58832	8976	3104	59456	10688	1	
20064	58832	8976	3104	59456	10688	1	
20064	58832	8976	3104	59456	10688	1	
20064	58832	8976	3104	59456	10688	1	
20064	58832	8976	3104	59456	10688	1	
20064	58832	8976	3104	59456	10688	1	
20064	58832	8976	3104	59456	10688	1	
20064	58832	8976	3104	59456	10688	1	
20064	58832	8976	3104	59456	10688	1	
20064	58832	8976	3104	59456	10688	1	
20064	58832	8976	3104	59456	10688	1	
20064	58832	8976	3104	59456	10688	1	
20064	58832	8976	3104	59456	10688	1	
19984	57424	8784	3072	58864	10736	1	
20720	55504	8592	2960	57312	10752	1	
21136	54720	8560	2912	56192	10800	1	
21632	53616	8512	2800	53840	10576	1	
21632	53616	8512	2800	53840	10576	1	
21632	53616	8512	2800	53840	10576	1	
21664	53840	8432	2672	51840	10224	1	
22000	54976	8336	2672	51184	10256	1	
23760	56480	8272	2656	50496	11264	1	
24704	56800	8304	2736	50544	12160	1	
25760	57232	8464	2816	51328	13104	1	
26864	57616	9056	2896	51920	14592	1	
27104	57488	9248	2960	52384	14992	1	
27056	57040	9328	3024	54000	15232	1	
26800	56432	9440	2992	54880	15296	1	
26480	55712	9520	3024	55664	15264	1	
26480	55712	9520	3024	55664	15264	1	
26000	54816	9536	3040	56416	15136	1	
26000	54816	9536	3040	56416	15136	1	
25472	53952	9568	3024	56928	14960	1	
25472	53952	9568	3024	56928	14960	1	
24912	52928	9488	3024	56960	14688	1	
24384	51872	9472	3008	57440	14464	1	
24384	51872	9472	3008	57440	14464	1	
24112	51008	9472	2960	57344	14304	1	
23744	50176	9424	2944	57408	14080	1	
23456	49408	9392	2864	57344	13888	1	
23136	48592	9264	2800	57280	13616	1	
23136	48592	9264	2800	57280	13616	1	
22896	47936	9104	2768	56944	13376	1	
22896	47936	9104	2768	56944	13376	1	
22896	47936	9104	2768	56944	13376	1	
22512	46192	8784	2720	55952	13072	1	
22512	46192	8784	2720	55952	13072	1	
22240	45216	8608	2672	55280	12960	1	
22240	45216	8608	2672	55280	12960	1	
21856	44800	8416	2656	54528	12816	1	
21408	44944	8208	2624	53776	12640	1	
21408	44944	8208	2624	53776	12640	1	
20928	45232	8032	2640	53232	12576	1	
20928	45232	8032	2640	53232	12576	1	
20480	45248	7904	2656	52864	12560	1	
20480	45248	7904	2656	52864	12560	1	
20048	45744	7968	2688	52464	12448	1	
19856	46288	8048	2704	52208	12240	1	
19856	46288	8048	2704	52208	12240	1	
19616	47024	8096	2832	51920	12224	1	
19472	47488	8032	2912	51488	12400	1	
19472	47488	8032	2912	51488	12400	1	
19296	48320	8048	2928	52128	12560	1	
18992	49056	8032	2992	53104	12688	1	
19072	49456	8096	3008	53984	12784	1	
19072	49456	8096	3008	53984	12784	1	
19520	49792	8016	3056	54416	12944	1	
20368	49872	8032	3056	54240	13152	1	
20368	49872	8032	3056	54240	13152	1	
21328	50880	8016	3104	53824	13280	1	
22160	52784	8064	3184	53360	13344	1	
22160	52784	8064	3184	53360	13344	1	
22784	54512	8032	3216	52944	13440	1	
23280	56496	8048	3264	52304	13584	1	
23280	56496	8048	3264	52304	13584	1	
23280	56496	8048	3264	52304	13584	1	
23616	59040	8384	3184	51440	13536	1	
23504	60016	8592	3200	50928	13472	1	
23504	60016	8592	3200	50928	13472	1	
23504	60016	8592	3200	50928	13472	1	
23072	60720	8832	3088	50000	13040	1	
23072	60720	8832	3088	50000	13040	1	
22752	60768	8992	3056	51168	12864	1	
22336	60768	9136	3008	52016	12672	1	
22336	60768	9136	3008	52016	12672	1	
22096	60512	9200	2896	52208	12480	1	
22096	60512	9200	2896	52208	12480	1	
21920	60064	9152	2816	52336	12256	1	
21808	59472	9104	2752	52352	11984	1	
21712	59040	9120	2720	52080	11856	1	
21712	59040	9120	2720	52080	11856	1	
21696	58256	9136	2672	51632	11936	1	
21696	58256	9136	2672	51632	11936	1	
21424	57328	9104	2656	51120	11920	1	
21424	57328	9104	2656	51120	11920	1	
21104	56512	9040	2608	50528	11840	1	
20768	55776	8992	2640	49872	11728	1	
20560	55232	8960	2576	49200	11648	1	
20560	55232	8960	2576	49200	11648	1	
20560	54736	8896	2528	48448	11600	1	
20560	54736	8896	2528	48448	11600	1	
20560	53856	8800	2496	47776	11504	1	
20560	53856	8800	2496	47776	11504	1	
20368	53072	8704	2448	47200	11392	1	
20288	52448	8656	2416	46864	11200	1	
20288	52448	8656	2416	46864	11200	1	
20256	51920	8656	2384	46848	11120	1	
20688	51664	8560	2352	46720	11408	1	
20688	51664	8560	2352	46720	11408	1	
20688	51664	8560	2352	46720	11408	1	
21552	51344	8448	2416	46736	12144	1	
21552	51344	8448	2416	46736	12144	1	
22112	52064	8352	2528	46608	12736	1	
22640	53216	8400	2576	46208	13376	1	
22640	53216	8400	2576	46208	13376	1	
22880	54496	8432	2656	45568	13712	1	
23216	55872	8384	2768	45440	13984	1	
23216	55872	8384	2768	45440	13984	1	
23376	56752	8416	2768	46016	14160	1	
23440	57280	8496	2816	46672	14176	1	
23328	57744	8512	2800	47216	14096	1	
23120	58192	8544	2816	47312	14016	1	
23120	58192	8544	2816	47312	14016	1	
22784	58144	8704	2768	47168	13856	1	
22784	58144	8704	2768	47168	13856	1	
22464	57904	8752	2752	46784	13664	1	
22304	57440	8832	2688	46208	13424	1	
22304	57440	8832	2688	46208	13424	1	
22448	56736	8960	2624	45888	13184	1	
22704	55840	9088	2640	45648	13088	1	
22704	55840	9088	2640	45648	13088	1	
22704	55840	9088	2640	45648	13088	1	
22752	54784	9152	2624	45360	12928	1	
22752	54784	9152	2624	45360	12928	1	
22752	54784	9152	2624	45360	12928	1	
22736	53696	9264	2560	45008	12704	1	
22608	52624	9328	2528	44576	12496	1	
22352	51888	9376	2496	44096	12240	1	
22032	51872	9296	2448	43696	12016	1	
22032	51872	9296	2448	43696	12016	1	
22032	51872	9296	2448	43696	12016	1	
21808	52672	9184	2416	43008	12352	1	
21808	52672	9184	2416	43008	12352	1	
21936	53120	9152	2384	43840	12512	1	
22176	53456	9248	2368	44608	12704	1	
22176	53456	9248	2368	44608	12704	1	
22176	53456	9248	2368	44608	12704	1	
22480	53552	9248	2416	44976	12880	1	
23232	53776	9376	2448	45088	13040	1	
23744	54256	9440	2512	45008	13312	1	
23744	54256	9440	2512	45008	13312	1	
24208	54288	9456	2544	44688	13872	1	
24544	54272	9456	2576	44320	14208	1	
24544	54272	9456	2576	44320	14208	1	
24672	54016	9408	2592	44016	14448	1	
24720	53616	9328	2592	43744	14576	1	
24720	53616	9328	2592	43744	14576	1	
24704	53392	9248	2640	43408	14736	1	
24704	53392	9248	2640	43408	14736	1	
24544	52976	9152	2592	42768	14736	1	
24544	52976	9152	2592	42768	14736	1	
24304	52480	9104	2560	42016	14672	1	
24304	52480	9104	2560	42016	14672	1	
23968	51968	9024	2560	41408	14560	1	
23568	51824	8960	2560	40672	14416	1	
23168	51312	8944	2512	39792	14176	1	
23104	50880	8896	2512	39104	14112	1	
23104	50880	8896	2512	39104	14112	1	
23120	50912	8896	2480	39488	13968	1	
23072	51024	8848	2480	40080	13936	1	
23072	51024	8848	2480	40080	13936	1	
22976	51328	8896	2496	40320	13760	1	
22768	51568	8880	2448	40160	13568	1	
22768	51568	8880	2448	40160	13568	1	
22768	51568	8880	2448	40160	13568	1	
22544	51792	8800	2400	39792	13344	1	
22160	51776	8784	2384	39424	13072	1	
22160	51776	8784	2384	39424	13072	1	
21952	51776	8704	2384	39232	12784	1	
21696	52464	8576	2416	38976	12480	1	
21552	53216	8480	2416	38432	12224	1	
21552	53216	8480	2416	38432	12224	1	
21552	53216	8480	2416	38432	12224	1	
21456	54064	8416	2512	37712	12048	1	
21376	54368	8304	2544	37280	12096	1	
21392	54352	8224	2608	37760	12144	1	
21456	54176	8176	2608	37840	12064	1	
21456	54176	8176	2608	37840	12064	1	
21472	54096	8160	2608	38160	12064	1	
21472	54096	8160	2608	38160	12064	1	
21472	54016	8176	2640	37920	12064	1	
21472	54016	8176	2640	37920	12064	1	
21536	54336	8144	2656	37808	12160	1	
21744	54640	8096	2640	37424	12192	1	
21744	54640	8096	2640	37424	12192	1	
21744	54640	8096	2640	37424	12192	1	
21744	54640	8096	2640	37424	12192	1	
21936	55088	8304	2768	37792	12224	1	
21936	55088	8304	2768	37792	12224	1	
21968	55168	8480	2736	38368	12144	1	
21904	55040	8560	2784	39072	12000	1	
21904	55168	8688	2848	39536	12048	1	
21904	55168	8688	2848	39536	12048	1	
22032	55008	8832	2912	39984	12096	1	
22032	55008	8832	2912	39984	12096	1	
22144	54800	8848	2960	40464	12144	1	
22240	54352	8960	2976	40976	12208	1	
22480	53632	8992	3008	41264	12240	1	
22480	53632	8992	3008	41264	12240	1	
22896	52896	8928	3072	41632	12192	1	
23280	52096	8896	3104	42208	12176	1	
23280	52096	8896	3104	42208	12176	1	
23280	52096	8896	3104	42208	12176	1	
23600	51120	8816	3120	42832	12160	1	
23744	50048	8784	3152	43120	12144	1	
23952	49120	8656	3216	43040	12080	1	
24256	48272	8560	3216	42784	12032	1	
24256	48272	8560	3216	42784	12032	1	
24256	48272	8560	3216	42784	12032	1	
24352	47760	8368	3200	43360	11888	1	
24352	47760	8368	3200	43360	11888	1	
24272	48688	8272	3184	43120	11936	1	
24080	50016	8176	3184	42688	12000	1	
24080	50016	8176	3184	42688	12000	1	
23776	51376	8112	3232	42160	11984	1	
23776	51376	8112	3232	42160	11984	1	
23392	52208	8080	3216	42080	11904	1	
22992	52848	8064	3248	42288	11808	1	
22992	52848	8064	3248	42288	11808	1	
22592	53456	8032	3184	43408	11600	1	
22240	54352	8000	3200	43968	11408	1	
22240	54352	8000	3200	43968	11408	1	
21824	55232	7952	3168	44176	11216	1	
21824	55232	7952	3168	44176	11216	1	
21632	55584	7888	3168	44256	11152	1	
21632	55584	7888	3168	44256	11152	1	
21552	55728	7888	3184	44176	11200	1	
21296	55728	7904	3168	44096	11104	1	
21296	55728	7904	3168	44096	11104	1	
21152	55392	7904	3152	43952	11040	1	
21152	55392	7904	3152	43952	11040	1	
20960	54896	7968	3168	43712	10912	1	
20720	54288	8048	3184	43872	10752	1	
20720	54288	8048	3184	43872	10752	1	
20432	53776	8160	3168	44560	10688	1	
20128	53456	8224	3136	45088	10592	1	
19936	53088	8336	3072	45120	10464	1	
19936	53088	8336	3072	45120	10464	1	
19568	52768	8352	3040	44800	10464	1	
19568	52768	8352	3040	44800	10464	1	
19664	52096	8368	3024	44464	10576	1	
19872	51312	8416	2976	44096	10592	1	
19904	50464	8384	2976	43616	10672	1	
19904	50464	8384	2976	43616	10672	1	
19808	49440	8448	2976	42896	10688	1	
19808	49440	8448	2976	42896	10688	1	
19808	49440	8448	2976	42896	10688	1	
19728	48576	8448	2928	42272	10784	1	
19424	46624	8384	2832	42048	10736	1	
19424	46624	8384	2832	42048	10736	1	
19200	45648	8304	2768	41712	10672	1	
1792	944	1504	1632	128	720	1	
1808	960	1552	1664	128	720	1	
1840	976	1648	1616	128	704	1	
1840	976	1648	1616	128	704	1	
1888	960	1712	1600	128	704	1	
1888	960	1712	1600	128	704	1	
1920	1024	1728	1568	160	672	1	
1968	992	1744	1552	176	688	1	
1968	992	1744	1552	176	688	1	
1968	992	1744	1552	176	688	1	
1984	1056	1744	1536	144	688	1	
1984	1056	1744	1536	144	688	1	
2016	1072	1728	1504	144	704	1	
2032	1072	1680	1488	192	672	1	
2032	1072	1680	1488	192	672	1	
1984	1072	1664	1456	192	688	1	
2000	1104	1680	1360	208	672	1	
2000	1104	1680	1360	208	672	1	
2128	1040	1696	1360	208	704	1	
2192	1040	1728	1296	176	704	1	
2192	1040	1728	1296	176	704	1	
2192	1040	1728	1296	176	704	1	
2240	1040	1760	1248	224	720	1	
2288	992	1776	1184	208	704	1	
2288	1008	1792	1168	192	688	1	
2288	1008	1792	1168	192	688	1	
2288	992	1824	1088	192	672	1	
2288	992	1824	1088	192	672	1	
2320	976	1856	1072	192	672	1	
2288	1008	1840	1024	176	656	1	
2288	1008	1840	1024	176	656	1	
2256	992	1824	992	144	672	1	
2256	992	1872	960	144	672	1	
2256	992	1872	960	144	672	1	
2240	992	1952	928	176	704	1	
2240	992	1952	928	176	704	1	
2192	1024	1984	912	192	704	1	
2160	1024	1984	1024	192	688	1	
2160	1024	1984	1024	192	688	1	
2128	1008	1968	1136	224	704	1	
2048	992	1984	1232	224	704	1	
2048	992	1984	1232	224	704	1	
2016	1008	1968	1280	208	688	1	
2016	1008	1968	1280	208	688	1	
1936	992	1984	1344	176	688	1	
1888	992	2000	1488	192	720	1	
1840	1056	1984	1584	192	704	1	
1840	1056	1984	1584	192	704	1	
1808	1024	1984	1648	160	704	1	
1808	1024	1984	1648	160	704	1	
1760	1024	1984	1680	144	688	1	
1760	1024	1984	1680	144	688	1	
1728	1024	1952	1664	176	672	1	
1728	1024	2000	1648	160	704	1	
1728	1024	2000	1648	160	704	1	
1728	992	2000	1616	176	752	1	
1760	960	2032	1600	192	768	1	
1760	960	2032	1600	192	768	1	
1760	976	2032	1568	176	752	1	
1824	976	2064	1600	160	768	1	
1840	960	2064	1616	144	800	1	
1840	960	2064	1616	144	800	1	
1840	912	2128	1600	144	816	1	
1808	912	2080	1568	128	816	1	
1808	912	2080	1568	128	816	1	
1792	880	2064	1552	160	816	1	
1776	816	2080	1504	160	816	1	
1776	816	2080	1504	160	816	1	
1776	816	2080	1504	160	816	1	
1776	816	2080	1504	160	816	1	
1792	816	2080	1472	160	848	1	
1744	784	2144	1376	160	848	1	
1744	784	2144	1376	160	848	1	
1728	784	2176	1328	208	880	1	
1760	784	2224	1296	192	928	1	
1760	784	2224	1296	192	928	1	
1808	768	2224	1280	192	912	1	
1856	800	2240	1248	208	944	1	
1856	800	2240	1248	208	944	1	
1856	800	2240	1248	208	944	1	
1984	816	2272	1264	208	912	1	
2176	832	2288	1264	208	928	1	
2320	848	2272	1248	192	928	1	
2320	848	2272	1248	192	928	1	
2448	864	2256	1264	224	944	1	
2448	864	2256	1264	224	944	1	
2480	864	2256	1216	208	912	1	
2544	912	2208	1168	256	944	1	
2560	912	2128	1120	240	912	1	
2560	912	2128	1120	240	912	1	
2576	880	2128	1088	256	928	1	
2576	928	2064	1024	224	928	1	
2576	928	2064	1024	224	928	1	
2576	928	2064	1024	224	928	1	
2608	912	2064	1008	208	896	1	
2608	912	2064	1008	208	896	1	
2720	896	2080	1088	208	912	1	
2816	912	2032	1136	240	912	1	
2816	912	2032	1136	240	912	1	
2832	912	2016	1248	224	928	1	
2896	864	1984	1392	192	912	1	
2896	864	1984	1392	192	912	1	
2896	864	1984	1392	192	912	1	
2880	864	1984	1472	208	880	1	
2864	880	1952	1552	240	848	1	
2848	832	1888	1584	272	832	1	
2800	816	1840	1648	272	832	1	
2800	816	1840	1648	272	832	1	
2768	848	1792	1664	288	832	1	
2768	848	1792	1664	288	832	1	
2768	832	1760	1696	320	784	1	
2768	832	1744	1664	320	816	1	
2768	832	1744	1664	320	816	1	
2736	848	1760	1648	288	816	1	
2688	848	1776	1664	288	816	1	
2688	848	1776	1664	288	816	1	
2688	784	1808	1584	304	800	1	
2656	832	1872	1536	288	800	1	
2656	832	1872	1536	288	800	1	
2608	848	1856	1520	272	832	1	
2608	848	1856	1520	272	832	1	
2560	816	1888	1408	272	800	1	
2560	816	1888	1408	272	800	1	
2544	800	1952	1344	288	768	1	
2544	800	1952	1344	288	768	1	
2448	832	1888	1296	272	784	1	
2368	832	1904	1200	272	768	1	
2288	832	1904	1152	256	768	1	
2256	880	1840	1088	224	752	1	
2256	880	1840	1088	224	752	1	
2256	880	1840	1088	224	752	1	
2256	880	1840	1088	224	752	1	
2112	912	1888	1072	208	752	1	
2112	912	1888	1072	208	752	1	
2080	928	1856	1040	240	752	1	
2064	992	1856	1024	192	752	1	
2080	1024	1760	1024	208	720	1	
2080	1024	1760	1024	208	720	1	
2080	1024	1760	1024	208	720	1	
2144	1040	1728	976	192	768	1	
2144	1040	1712	944	208	736	1	
2192	1088	1696	912	224	736	1	
2160	1120	1680	848	208	752	1	
2160	1120	1680	848	208	752	1	
2192	1136	1648	864	208	752	1	
2192	1136	1648	864	208	752	1	
2144	1152	1632	800	208	736	1	
2144	1152	1632	800	208	736	1	
2096	1184	1632	800	224	736	1	
2032	1152	1600	880	208	736	1	
2016	1152	1552	864	208	752	1	
2016	1152	1552	864	208	752	1	
1984	1168	1552	944	192	768	1	
1984	1168	1552	944	192	768	1	
1952	1136	1536	1088	208	720	1	
1920	1152	1536	1216	208	736	1	
1872	1120	1536	1360	208	752	1	
1872	1120	1536	1360	208	752	1	
1808	1200	1504	1552	208	768	1	
1808	1200	1504	1552	208	768	1	
1776	1136	1536	1648	272	752	1	
1792	1136	1536	1696	272	736	1	
1824	1120	1568	1776	256	736	1	
1824	1120	1568	1776	256	736	1	
1888	1120	1584	1760	240	784	1	
2016	1104	1616	1808	256	752	1	
2016	1104	1616	1808	256	752	1	
2016	1104	1616	1808	256	752	1	
2144	1120	1792	1872	256	768	1	
2144	1120	1792	1872	256	768	1	
2192	1104	1856	1888	272	752	1	
2208	1120	1920	1888	240	768	1	
2208	1120	1920	1888	240	768	1	
2208	1120	1920	1888	240	768	1	
2176	1104	1952	1888	208	768	1	
2192	1120	2016	1824	256	736	1	
2192	1120	2016	1824	256	736	1	
2208	1104	2112	1776	224	720	1	
2160	1104	2160	1728	224	752	1	
2208	1056	2192	1648	240	672	1	
2208	1056	2192	1648	240	672	1	
2208	1056	2192	1648	240	672	1	
2160	1056	2208	1552	208	672	1	
2176	1008	2256	1488	176	672	1	
2176	1008	2256	1488	176	672	1	
2160	960	2288	1456	176	672	1	
2160	960	2288	1456	176	672	1	
2160	960	2288	1456	176	672	1	
2160	944	2352	1296	160	656	1	
2160	944	2352	1296	160	656	1	
2128	944	2336	1216	160	640	1	
2096	960	2384	1168	128	624	1	
2096	944	2384	1104	160	672	1	
2096	944	2384	1104	160	672	1	
2064	944	2432	1136	144	672	1	
2048	896	2448	1168	176	672	1	
2048	896	2448	1168	176	672	1	
2032	944	2384	1232	176	672	1	
2000	912	2400	1280	208	704	1	
2000	912	2400	1280	208	704	1	
1968	944	2368	1360	208	704	1	
1968	944	2368	1360	208	704	1	
1968	944	2368	1360	208	704	1	
1968	944	2368	1360	208	704	1	
1968	944	2368	1360	208	704	1	
1968	944	2368	1360	208	704	1	
1968	944	2368	1360	208	704	1	
1968	944	2368	1360	208	704	1	
1968	944	2368	1360	208	704	1	
1968	944	2368	1360	208	704	1	
1968	944	2368	1360	208	704	1	
1968	944	2368	1360	208	704	1	
1968	944	2368	1360	208	704	1	
1968	944	2368	1360	208	704	1	
1904	928	2352	1360	224	768	1	
1808	928	2320	1344	240	784	1	
1760	928	2320	1344	240	768	1	
1696	960	2320	1296	224	768	1	
1760	944	2320	1280	224	752	1	
1776	944	2320	1248	240	752	1	
1808	912	2320	1184	208	752	1	
1808	960	2304	1152	192	736	1	
1776	944	2336	1152	192	720	1	
1824	928	2304	1136	192	752	1	
1824	928	2304	1136	192	752	1	
1792	928	2288	1088	160	736	1	
1776	880	2256	1104	176	720	1	
1776	880	2256	1104	176	720	1	
1728	864	2192	1200	160	768	1	
1680	848	2160	1232	96	768	1	
1680	848	2160	1232	96	768	1	
1664	880	2144	1248	128	800	1	
1664	880	2144	1248	128	800	1	
1664	848	2144	1248	144	784	1	
1680	848	2176	1232	160	800	1	
1680	848	2176	1232	160	800	1	
1744	848	2240	1264	176	864	1	
1744	848	2240	1264	176	864	1	
1744	864	2288	1200	208	864	1	
1744	864	2288	1200	208	864	1	
1776	848	2368	1184	208	912	1	
1856	848	2432	1184	192	960	1	
1856	848	2432	1184	192	960	1	
1888	816	2480	1104	224	976	1	
1888	816	2480	1104	224	976	1	
1888	816	2480	1104	224	976	1	
1888	816	2512	1072	224	960	1	
1888	816	2528	1024	208	992	1	
1888	816	2480	992	208	992	1	
1904	800	2496	880	240	992	1	
1856	816	2496	880	208	976	1	
1856	816	2496	880	208	976	1	
1824	816	2512	832	240	1008	1	
1840	832	2448	848	304	1008	1	
1840	832	2448	848	304	1008	1	
1808	832	2464	880	288	992	1	
1760	832	2544	912	288	1008	1	
1760	832	2544	912	288	1008	1	
1776	800	2608	928	336	960	1	
1776	800	2608	928	336	960	1	
1776	800	2608	928	336	960	1	
1680	848	2608	960	304	992	1	
1664	832	2608	1024	288	1024	1	
1664	832	2608	1024	288	1024	1	
1680	816	2592	1136	320	1008	1	
1728	832	2576	1280	288	1008	1	
1808	848	2496	1360	288	1024	1	
1808	848	2496	1360	288	1024	1	
1808	848	2496	1360	288	1024	1	
1856	864	2464	1488	304	976	1	
1840	848	2448	1552	320	992	1	
1840	848	2448	1552	320	992	1	
1840	864	2416	1584	304	992	1	
1840	848	2384	1552	336	960	1	
1840	848	2384	1552	336	960	1	
1840	848	2384	1552	336	960	1	
1840	800	2384	1552	368	928	1	
1840	816	2352	1584	352	960	1	
1824	816	2320	1520	400	912	1	
1824	816	2320	1520	400	912	1	
1856	800	2320	1504	368	864	1	
1776	832	2336	1456	416	848	1	
1776	832	2336	1456	416	848	1	
1792	800	2320	1504	400	848	1	
1792	800	2320	1504	400	848	1	
1760	784	2272	1536	384	832	1	
1760	784	2272	1536	384	832	1	
1696	816	2224	1536	400	864	1	
1648	816	2256	1520	384	848	1	
1648	816	2256	1520	384	848	1	
1616	816	2256	1536	384	832	1	
1616	816	2256	1536	384	832	1	
1568	848	2256	1504	384	816	1	
1536	864	2256	1504	336	848	1	
1536	864	2256	1504	336	848	1	
1424	912	2256	1376	336	880	1	
1424	912	2256	1376	336	880	1	
1424	912	2256	1376	336	880	1	
1408	912	2256	1328	352	896	1	
1328	928	2224	1280	352	912	1	
1328	928	2224	1280	352	912	1	
1312	944	2256	1216	352	928	1	
1312	944	2256	1216	352	928	1	
1312	944	2256	1216	352	928	1	
1312	944	2256	1216	352	928	1	
1232	928	2192	1152	336	944	1	
1216	944	2192	1072	336	960	1	
1168	960	2144	1024	320	976	1	
1152	960	2096	976	368	944	1	
1152	960	2096	976	368	944	1	
1120	960	2016	896	336	960	1	
1056	976	2000	864	352	944	1	
1056	976	2000	864	352	944	1	
1056	976	1904	800	448	960	1	
1056	976	1904	800	448	960	1	
1056	992	1920	752	512	992	1	
1040	1024	1904	736	624	976	1	
1040	1024	1904	736	624	976	1	
1024	1072	1920	672	704	976	1	
1024	1024	1856	656	736	976	1	
1024	1024	1856	656	736	976	1	
1024	1024	1856	656	736	976	1	
1024	1072	1840	592	864	1024	1	
1040	1056	1872	544	1136	1024	1	
1040	1056	1872	544	1136	1024	1	
1040	1056	1840	496	1456	1024	1	
1168	1104	1840	512	2016	1040	1	
1168	1104	1840	512	2016	1040	1	
1216	1120	1840	464	2480	992	1	
1216	1120	1840	464	2480	992	1	
1216	1120	1840	464	2480	992	1	
1296	1152	1888	416	2976	1008	1	
1312	1168	1936	432	3344	992	1	
1344	1184	1968	480	3664	1008	1	
1392	1168	2000	560	3968	1040	1	
1392	1168	2000	560	3968	1040	1	
1392	1168	2000	560	3968	1040	1	
1408	1168	1984	608	4224	1024	1	
1392	1168	2032	672	4352	1024	1	
1392	1184	2016	704	4432	1056	1	
1392	1184	2032	704	4464	1056	1	
1392	1184	2032	704	4464	1056	1	
1376	1136	2032	720	4448	1056	1	
1376	1136	2032	720	4448	1056	1	
1360	1152	2064	720	4448	1040	1	
1360	1152	2064	720	4448	1040	1	
1328	1120	2080	704	4512	1024	1	
1312	1088	2112	688	4704	960	1	
1312	1088	2112	688	4704	960	1	
1264	1152	2112	672	4848	992	1	
1232	1200	2128	640	5024	960	1	
1232	1200	2128	640	5024	960	1	
1232	1200	2128	640	5024	960	1	
1232	1216	2112	624	5328	976	1	
1232	1216	2128	624	5568	976	1	
1264	1312	2112	576	5856	992	1	
1264	1312	2112	576	5856	992	1	
1248	1552	2144	528	6048	992	1	
1248	1552	2144	528	6048	992	1	
1264	1760	2096	496	6304	976	1	
1264	2032	2096	496	6496	960	1	
1264	2032	2096	496	6496	960	1	
1264	2224	2128	480	6784	960	1	
1264	2432	2128	432	7008	976	1	
1264	2432	2128	432	7008	976	1	
1264	2576	2144	448	7168	1008	1	
1312	2688	2176	384	7264	992	1	
1312	2688	2176	384	7264	992	1	
1312	2688	2176	384	7264	992	1	
1312	2688	2176	384	7264	992	1	
1280	2912	2128	320	7248	960	1	
1280	3008	2112	304	7168	944	1	
1280	3008	2112	304	7168	944	1	
1360	3072	2080	272	7040	960	1	
1408	3088	2048	256	6928	896	1	
1456	3120	2032	192	6864	864	1	
1456	3120	2032	192	6864	864	1	
1472	3120	2000	192	6816	848	1	
1568	3104	2000	144	6848	800	1	
1568	3104	2000	144	6848	800	1	
1568	3104	2000	144	6848	800	1	
1632	3136	1984	144	6864	832	1	
1632	3072	2000	144	7008	832	1	
1632	3072	2000	144	7008	832	1	
1632	3056	1968	128	7344	848	1	
1632	3024	1936	96	7728	880	1	
1632	3024	1936	96	7728	880	1	
1616	2944	1872	96	7984	848	1	
1616	2944	1872	96	7984	848	1	
1632	2880	1824	96	8304	880	1	
1584	2816	1840	80	8688	912	1	
1584	2752	1808	112	8976	928	1	
1584	2752	1808	112	8976	928	1	
1568	2672	1824	160	9136	928	1	
1568	2672	1824	160	9136	928	1	
1536	2608	1824	192	9200	960	1	
1536	2512	1776	288	9328	928	1	
1536	2512	1776	288	9328	928	1	
1536	2512	1776	288	9328	928	1	
1520	2480	1728	352	9392	960	1	
1488	2400	1664	384	9712	912	1	
1504	2320	1664	416	10240	896	1	
1504	2320	1664	416	10240	896	1	
1456	2288	1616	576	10576	896	1	
1392	2224	1600	688	11120	864	1	
1392	2224	1600	688	11120	864	1	
1360	2144	1600	752	11504	880	1	
1360	2144	1600	752	11504	880	1	
1344	2096	1520	800	11888	912	1	
1312	2048	1472	976	12144	928	1	
1312	2048	1472	976	12144	928	1	
1296	1984	1504	1088	12352	944	1	
1296	1952	1488	1216	12528	944	1	
1296	1904	1456	1264	12608	960	1	
1296	1904	1456	1264	12608	960	1	
1280	1872	1472	1296	12800	928	1	
1280	1872	1472	1296	12800	928	1	
1296	1776	1440	1344	13008	928	1	
1296	1776	1440	1344	13008	928	1	
1280	1744	1456	1328	13024	944	1	
1344	1760	1488	1344	13008	944	1	
1360	1776	1504	1296	12848	976	1	
1360	1776	1504	1296	12848	976	1	
1408	1760	1616	1280	12640	992	1	
1408	1760	1616	1280	12640	992	1	
1440	1808	1712	1232	12400	976	1	
1472	1840	1712	1216	12128	976	1	
1472	1888	1760	1136	12032	976	1	
1472	1888	1760	1136	12032	976	1	
1472	1888	1760	1136	12032	976	1	
1504	1904	1872	1088	11872	976	1	
1504	1920	1984	1024	11776	976	1	
1504	1920	1984	1024	11776	976	1	
1488	1936	2080	976	11712	944	1	
1488	1936	2080	976	11712	944	1	
1504	1920	2080	960	11600	928	1	
1584	1936	2096	896	11488	928	1	
1600	1872	2128	896	11504	944	1	
1600	1872	2128	896	11504	944	1	
1632	1904	2112	848	11632	928	1	
1632	1904	2112	848	11632	928	1	
1616	1872	2160	832	11680	976	1	
1648	1888	2160	864	11744	992	1	
1648	1888	2160	864	11744	992	1	
1648	1888	2208	960	11888	992	1	
1648	1888	2208	960	11888	992	1	
1616	1904	2208	1024	11920	1056	1	
1616	1904	2208	1024	11920	1056	1	
1648	1888	2288	1040	11920	1072	1	
1648	1888	2288	1040	11920	1072	1	
1616	1904	2352	1040	11872	1136	1	
1616	1904	2400	1072	12016	1152	1	
1632	1920	2448	1072	12112	1120	1	
1632	1920	2448	1072	12112	1120	1	
1632	1952	2432	1040	12080	1168	1	
1632	1952	2432	1040	12080	1168	1	
1632	1968	2448	1040	11968	1136	1	
1600	1968	2432	1040	11840	1136	1	
1600	1968	2432	1040	11840	1136	1	
1616	1936	2400	1072	11664	1168	1	
1552	1904	2368	1136	11424	1136	1	
1552	1904	2368	1136	11424	1136	1	
1520	1872	2336	1152	11104	1200	1	
1520	1872	2336	1152	11104	1200	1	
1488	1872	2336	1200	10832	1184	1	
1440	1856	2304	1184	10560	1184	1	
1376	1824	2256	1232	10368	1184	1	
1328	1856	2240	1216	10272	1184	1	
1328	1856	2240	1216	10272	1184	1	
1328	1856	2240	1216	10272	1184	1	
1328	1776	2224	1248	10128	1200	1	
1296	1744	2192	1360	10096	1184	1	
1328	1824	2144	1456	10096	1168	1	
1328	1824	2144	1456	10096	1168	1	
1264	2064	2112	1504	10000	1168	1	
1280	2272	2064	1568	10160	1120	1	
1280	2272	2064	1568	10160	1120	1	
1296	2448	2048	1584	10336	1104	1	
1296	2448	2048	1584	10336	1104	1	
1312	2576	2032	1600	10848	1088	1	
1328	2688	2000	1600	11360	1088	1	
1328	2816	1984	1600	11776	1120	1	
1328	2816	1984	1600	11776	1120	1	
1328	2912	1984	1552	12288	1056	1	
1360	2960	1984	1504	12528	1056	1	
1312	3040	2000	1472	12688	1072	1	
1312	3040	2000	1472	12688	1072	1	
1296	3024	2032	1472	12736	1056	1	
1344	3040	2064	1440	12784	1040	1	
1344	3040	2064	1440	12784	1040	1	
1264	3120	2032	1456	12992	1104	1	
1248	3104	2000	1440	13360	1120	1	
1248	3104	2000	1376	13600	1152	1	
1216	3088	1968	1376	13696	1168	1	
1216	3088	1968	1376	13696	1168	1	
1216	3088	1968	1376	13696	1168	1	
1200	3072	2000	1328	13632	1152	1	
1200	3120	1936	1344	13632	1184	1	
1184	3152	1888	1376	13600	1168	1	
1184	3152	1888	1376	13600	1168	1	
1152	3152	1824	1376	13728	1136	1	
1136	3216	1808	1376	14224	1072	1	
1136	3216	1808	1376	14224	1072	1	
1120	3280	1744	1440	14560	1072	1	
1120	3280	1744	1440	14560	1072	1	
1120	3344	1792	1408	15104	1088	1	
1088	3376	1872	1472	15408	1056	1	
1088	3376	1872	1472	15408	1056	1	
1088	3376	1872	1472	15408	1056	1	
1088	3648	1920	1440	16096	1008	1	
1088	3648	1920	1440	16096	1008	1	
1088	3648	1920	1440	16096	1008	1	
1088	3728	1952	1440	16416	1008	1	
1056	3808	2016	1504	16848	1008	1	
1056	3808	2016	1504	16848	1008	1	
1072	3936	2032	1552	17648	1072	1	
1040	4016	2064	1616	18496	1104	1	
1040	4016	2064	1616	18496	1104	1	
992	4032	2144	1648	19280	1120	1	
992	4032	2144	1648	19280	1120	1	
992	4080	2160	1648	19904	1184	1	
992	4128	2160	1664	20496	1200	1	
992	4128	2160	1664	20496	1200	1	
1008	4160	2144	1632	20848	1232	1	
1056	4320	2208	1568	21040	1232	1	
1056	4320	2208	1568	21040	1232	1	
1056	4320	2208	1568	21040	1232	1	
1072	4496	2176	1568	21472	1248	1	
1136	4624	2160	1520	21936	1248	1	
1136	4624	2160	1520	21936	1248	1	
1200	4720	2144	1456	22176	1264	1	
1264	4768	2112	1424	22304	1264	1	
1312	4816	2144	1408	22240	1264	1	
1312	4816	2144	1408	22240	1264	1	
1408	4880	2096	1424	22080	1264	1	
1408	4880	2096	1424	22080	1264	1	
1392	4928	2096	1600	21872	1264	1	
1456	5136	2032	1760	21552	1248	1	
1456	5600	2016	1856	21264	1248	1	
1456	5600	2016	1856	21264	1248	1	
1456	5600	2016	1856	21264	1248	1	
1440	5984	2016	1904	21040	1232	1	
1440	6528	2032	1984	20704	1216	1	
1440	6528	2032	1984	20704	1216	1	
1424	7088	2048	1968	20368	1200	1	
1424	7776	2080	2016	19920	1200	1	
1408	8352	2112	2112	19408	1248	1	
1408	8352	2112	2112	19408	1248	1	
1408	8352	2112	2112	19408	1248	1	
1408	8352	2112	2112	19408	1248	1	
1408	8784	2160	2128	18928	1264	1	
1408	9264	2192	2144	18608	1264	1	
1360	9936	2352	2112	18128	1296	1	
1360	9936	2352	2112	18128	1296	1	
1376	10192	2432	2064	18000	1280	1	
1344	10528	2448	2048	17936	1280	1	
1344	10528	2448	2048	17936	1280	1	
1344	10800	2512	2000	18096	1280	1	
1344	10800	2512	2000	18096	1280	1	
1312	11104	2608	1968	18160	1280	1	
1312	11104	2608	1968	18160	1280	1	
1376	11216	2656	1872	18384	1328	1	
1376	11216	2656	1872	18384	1328	1	
1456	11296	2672	1808	18688	1344	1	
1488	11344	2688	1728	18912	1392	1	
1488	11344	2688	1728	18912	1392	1	
1488	11344	2688	1728	18912	1392	1	
1616	11392	2704	1632	19072	1456	1	
1680	11520	2768	1552	19248	1456	1	
1680	11520	2768	1552	19248	1456	1	
1680	11520	2768	1552	19248	1456	1	
1680	11520	2768	1552	19248	1456	1	
1680	11520	2768	1552	19248	1456	1	
1680	11520	2768	1552	19248	1456	1	
1680	11520	2768	1552	19248	1456	1	
1680	11520	2768	1552	19248	1456	1	
1680	11520	2768	1552	19248	1456	1	
1680	11520	2768	1552	19248	1456	1	
1680	11520	2768	1552	19248	1456	1	
1680	11520	2768	1552	19248	1456	1	
1680	11520	2768	1552	19248	1456	1	
1744	11568	2800	1488	19360	1424	1	
1856	11808	2752	1552	19360	1456	1	
1984	12288	2848	1632	19232	1440	1	
2048	12512	2864	1664	19248	1472	1	
2096	12672	2896	1648	18992	1536	1	
2080	13280	2944	1600	19168	1600	1	
2112	13536	2944	1600	19680	1632	1	
2144	14400	2944	1536	20256	1664	1	
2128	14784	2944	1504	20432	1696	1	
2080	15712	2896	1424	20976	1744	1	
2176	16032	2896	1312	21152	1696	1	
2176	16032	2896	1312	21152	1696	1	
2144	16288	2912	1328	21344	1744	1	
2192	16336	2928	1232	21616	1760	1	
2192	16336	2928	1232	21616	1760	1	
2160	16320	2944	1200	21744	1776	1	
2128	16208	2960	1168	21680	1760	1	
2128	16208	2960	1168	21680	1760	1	
2128	16208	2960	1168	21680	1760	1	
2176	16000	2992	1136	21504	1808	1	
2208	15840	3072	1088	21328	1840	1	
2176	15680	3104	1056	21232	1904	1	
2176	15680	3104	1056	21232	1904	1	
2208	15456	3152	1008	21008	1936	1	
2208	15456	3152	1008	21008	1936	1	
2224	15232	3168	992	21056	1968	1	
2208	14992	3280	960	21296	2000	1	
2208	14992	3280	960	21296	2000	1	
2208	14992	3280	960	21296	2000	1	
2192	14640	3488	1008	22272	2048	1	
2224	14400	3536	1072	22816	2048	1	
2224	14400	3536	1072	22816	2048	1	
2304	14288	3568	1104	23120	2080	1	
2416	14208	3584	1168	23216	2208	1	
2496	14368	3584	1184	23184	2240	1	
2496	14368	3584	1184	23184	2240	1	
2688	14464	3552	1152	23104	2304	1	
2688	14464	3552	1152	23104	2304	1	
2880	14976	3536	1184	22848	2384	1	
3168	15600	3504	1120	22688	2592	1	
3168	15600	3504	1120	22688	2592	1	
3392	16240	3440	1136	22432	2736	1	
3600	16816	3392	1120	22240	2880	1	
3600	16816	3392	1120	22240	2880	1	
3744	17376	3360	1104	22272	3024	1	
3744	17376	3360	1104	22272	3024	1	
3984	17712	3360	1056	22240	3152	1	
3984	17712	3360	1056	22240	3152	1	
4176	18032	3360	1056	22176	3216	1	
4320	18224	3264	1024	22032	3280	1	
4448	18384	3264	992	22064	3328	1	
4544	18560	3200	992	22080	3360	1	
4544	18560	3200	992	22080	3360	1	
4544	18560	3200	992	22080	3360	1	
4608	18688	3152	960	22112	3408	1	
4640	18672	3120	960	22480	3424	1	
4720	18704	3072	896	22816	3408	1	
4720	18704	3072	896	22816	3408	1	
4720	19040	2992	880	23088	3392	1	
4720	19040	2992	880	23088	3392	1	
4720	19120	2944	864	23152	3344	1	
4656	19312	2880	816	23184	3280	1	
4560	19472	2864	768	23120	3200	1	
4560	19472	2864	768	23120	3200	1	
4496	19632	2848	752	22896	3200	1	
4416	19680	2832	752	22640	3152	1	
4416	19680	2832	752	22640	3152	1	
4336	19728	2816	784	22256	3104	1	
4336	19728	2816	784	22256	3104	1	
4256	20000	2800	736	21856	3040	1	
4144	20320	2768	800	21600	3008	1	
4144	20320	2768	800	21600	3008	1	
4064	21040	2736	864	21456	2912	1	
4064	21040	2736	864	21456	2912	1	
4000	21472	2736	864	21248	2880	1	
4000	21472	2736	864	21248	2880	1	
3936	22128	2752	928	21040	2848	1	
3920	22816	2752	928	20912	2800	1	
3920	22816	2752	928	20912	2800	1	
3968	23312	2752	960	20864	2832	1	
4176	23856	2784	944	20816	2848	1	
4176	23856	2784	944	20816	2848	1	
4336	24208	2848	960	20544	2960	1	
4336	24208	2848	960	20544	2960	1	
4640	24368	2896	944	20320	3104	1	
4848	24448	2912	960	20224	3216	1	
4848	24448	2912	960	20224	3216	1	
4848	24448	2912	960	20224	3216	1	
5136	25248	3008	848	19904	3280	1	
5136	25248	3008	848	19904	3280	1	
5232	26128	2992	864	20000	3312	1	
5312	27024	2976	816	20064	3312	1	
5312	27024	2976	816	20064	3312	1	
5472	27712	2992	800	20128	3296	1	
5664	28240	2944	832	20496	3296	1	
5664	28240	2944	832	20496	3296	1	
5776	28640	2928	832	20704	3296	1	
5920	28848	2928	816	20752	3408	1	
6096	28880	2864	784	20672	3504	1	
6096	28880	2864	784	20672	3504	1	
6096	28880	2864	784	20672	3504	1	
6240	28880	2800	800	20608	3680	1	
6528	28752	2736	752	20592	3856	1	
6528	28752	2736	752	20592	3856	1	
6656	28688	2672	736	20400	4016	1	
6848	28464	2592	752	20192	4128	1	
7024	28288	2528	752	20112	4224	1	
7024	28288	2528	752	20112	4224	1	
7104	28144	2496	672	19984	4288	1	
7104	28144	2496	672	19984	4288	1	
7136	28368	2432	720	20000	4272	1	
7200	28528	2448	656	20240	4240	1	
7136	28464	2480	624	20368	4224	1	
7136	28464	2480	624	20368	4224	1	
7184	28240	2512	640	20272	4192	1	
7184	28240	2512	640	20272	4192	1	
7168	28048	2576	608	20112	4192	1	
7136	28048	2592	576	19984	4128	1	
7136	28048	2592	576	19984	4128	1	
7072	28240	2576	560	19936	4048	1	
7072	28240	2576	560	19936	4048	1	
7088	28368	2576	528	20064	4000	1	
7040	28832	2560	512	20064	3936	1	
7040	28832	2560	512	20064	3936	1	
7024	29168	2560	464	20224	3888	1	
7024	29168	2560	464	20224	3888	1	
6928	29408	2528	464	20384	3888	1	
6928	29408	2528	464	20384	3888	1	
6832	29600	2496	432	20672	3824	1	
6752	29664	2480	416	20864	3840	1	
6752	29664	2480	416	20864	3840	1	
6688	29744	2464	384	20848	3776	1	
6624	29632	2512	400	20928	3760	1	
6624	29632	2512	400	20928	3760	1	
6624	29632	2512	400	20928	3760	1	
6576	29456	2576	368	20896	3776	1	
6544	29344	2624	384	20896	3888	1	
6480	29600	2672	384	20944	3968	1	
6384	30240	2688	416	21264	4144	1	
6384	30240	2688	416	21264	4144	1	
6384	30240	2688	416	21264	4144	1	
6320	31424	2672	432	21552	4352	1	
6176	32352	2720	400	21744	4448	1	
6288	33520	2752	432	21920	4512	1	
6288	33520	2752	432	21920	4512	1	
6640	34512	2784	416	22112	4768	1	
6640	34512	2784	416	22112	4768	1	
6640	34512	2784	416	22112	4768	1	
6880	35264	2864	448	22240	4896	1	
7168	35680	2976	448	22672	4976	1	
7504	35808	3056	480	23808	5088	1	
7504	35808	3056	480	23808	5088	1	
7872	35808	3168	512	24496	5152	1	
8176	35696	3216	480	24992	5232	1	
8176	35696	3216	480	24992	5232	1	
8176	35696	3216	480	24992	5232	1	
8432	35440	3312	448	25568	5344	1	
8608	35136	3328	512	26448	5504	1	
8736	34976	3328	528	27344	5712	1	
8736	34976	3328	528	27344	5712	1	
8784	34944	3296	544	28160	5824	1	
8768	34944	3264	576	28704	5904	1	
8768	34944	3264	576	28704	5904	1	
8768	34944	3264	576	28704	5904	1	
8736	35072	3312	608	29056	6000	1	
8672	35088	3360	624	29552	6160	1	
8832	35360	3360	656	30480	6256	1	
8992	35776	3408	640	31984	6384	1	
8992	35776	3408	640	31984	6384	1	
9184	36160	3408	640	33408	6480	1	
9184	36160	3408	640	33408	6480	1	
9184	36160	3408	640	33408	6480	1	
9360	36304	3424	640	34464	6496	1	
9648	36256	3488	656	35040	6512	1	
10176	36032	3504	656	35488	6576	1	
10176	36032	3504	656	35488	6576	1	
10672	35712	3536	672	36016	6608	1	
10672	35712	3536	672	36016	6608	1	
11040	35440	3616	688	36416	6608	1	
11280	35072	3648	688	36512	6688	1	
11280	35072	3648	688	36512	6688	1	
11440	34816	3664	672	36432	6752	1	
11472	34672	3680	672	36416	6736	1	
11408	34432	3760	656	36240	6688	1	
11408	34432	3760	656	36240	6688	1	
11408	34432	3760	656	36240	6688	1	
11376	34448	3776	656	36048	6720	1	
11360	34816	3760	656	35712	6736	1	
11360	34816	3760	656	35712	6736	1	
11312	35456	3776	688	35520	6688	1	
11216	36160	3840	656	35600	6720	1	
11152	36976	3856	688	35440	6752	1	
11152	36976	3856	688	35440	6752	1	
11056	37680	3872	704	35168	6768	1	
11056	37680	3872	704	35168	6768	1	
10928	38176	3904	768	35232	6784	1	
10784	38736	3984	832	35680	6800	1	
10784	38736	3984	832	35680	6800	1	
10624	39168	4000	896	36192	6944	1	
10624	39168	4000	896	36192	6944	1	
10496	39904	4048	1040	36608	7152	1	
10496	40944	4144	1120	36848	7344	1	
10496	40944	4144	1120	36848	7344	1	
10544	41536	4272	1248	37248	7424	1	
10528	42640	4368	1344	37264	7488	1	
10528	42640	4368	1344	37264	7488	1	
10528	42640	4368	1344	37264	7488	1	
10528	42640	4368	1344	37264	7488	1	
10752	43552	4448	1392	37168	7600	1	
11088	44336	4448	1520	36880	7696	1	
11424	44816	4512	1616	36544	7728	1	
11424	44816	4512	1616	36544	7728	1	
11856	44992	4560	1648	35968	7776	1	
12288	44928	4560	1728	35312	7808	1	
12288	44928	4560	1728	35312	7808	1	
12800	44576	4560	1760	35120	7776	1	
13168	44080	4512	1792	35296	7776	1	
13168	44080	4512	1792	35296	7776	1	
13488	43552	4480	1824	35472	7808	1	
13616	43344	4448	1856	36304	7808	1	
13760	42912	4432	1904	37456	7904	1	
13760	42912	4432	1904	37456	7904	1	
13760	42912	4432	1904	37456	7904	1	
13776	42608	4432	1904	38832	7904	1	
13856	42160	4400	1888	39504	7872	1	
14016	41952	4368	1904	40176	7872	1	
14144	41904	4400	1888	40656	7952	1	
14144	41904	4400	1888	40656	7952	1	
14304	41808	4384	1888	41152	8080	1	
14304	41808	4384	1888	41152	8080	1	
14560	41424	4496	1904	41664	8096	1	
14560	41424	4496	1904	41664	8096	1	
14768	40912	4560	1888	41984	8160	1	
14768	40912	4560	1888	41984	8160	1	
14832	40640	4624	1904	42208	8224	1	
14896	40336	4688	1872	42832	8304	1	
14896	40336	4688	1872	42832	8304	1	
15152	40352	4816	1808	43232	8512	1	
15248	40352	4928	1824	43152	8672	1	
15248	40352	4928	1824	43152	8672	1	
15296	41296	4928	1856	43056	8784	1	
15248	42352	4944	1888	43360	8816	1	
15168	43248	4928	1920	43504	8880	1	
15168	43248	4928	1920	43504	8880	1	
15040	43664	4992	1904	43904	8944	1	
15040	43664	4992	1904	43904	8944	1	
14960	44272	5072	1936	44656	9120	1	
14864	44576	5104	1936	45104	9232	1	
14864	44576	5104	1936	45104	9232	1	
14880	44512	5168	1920	45712	9552	1	
14992	44368	5248	1920	46240	9936	1	
14992	44368	5248	1920	46240	9936	1	
15056	44032	5376	1952	46752	10304	1	
15072	43488	5504	1968	46944	10512	1	
15024	42816	5680	1936	47056	10608	1	
15024	42816	5680	1936	47056	10608	1	
14928	42128	5840	1936	46880	10624	1	
14928	42128	5840	1936	46880	10624	1	
14784	41472	5984	1872	46512	10576	1	
14640	40800	6112	1840	46656	10496	1	
14640	40800	6112	1840	46656	10496	1	
14640	40800	6112	1840	46656	10496	1	
14528	40288	6224	1840	46752	10432	1	
14384	40032	6320	1888	46704	10496	1	
14384	40032	6320	1888	46704	10496	1	
14384	39632	6416	1968	46720	10624	1	
14368	39376	6432	2064	46992	10640	1	
14544	39840	6448	2144	49040	10560	1	
14544	39840	6448	2144	49040	10560	1	
14784	40432	6560	2208	50608	10640	1	
14864	41744	6576	2320	51520	10752	1	
14864	41744	6576	2320	51520	10752	1	
14928	43088	6608	2464	52832	10832	1	
14944	43872	6640	2592	54096	10816	1	
14944	43872	6640	2592	54096	10816	1	
14928	45360	6656	2704	55120	10864	1	
14816	47280	6736	2832	56352	10912	1	
14816	47280	6736	2832	56352	10912	1	
14736	48992	6864	2896	58096	11088	1	
14736	48992	6864	2896	58096	11088	1	
14784	51280	6944	3008	59888	11312	1	
14784	51280	6944	3008	59888	11312	1	
15040	53024	7056	3072	60784	11408	1	
15312	54688	7136	3088	60816	11504	1	
15552	55760	7248	3136	60832	11648	1	
15728	56752	7296	3184	60864	11744	1	
15728	56752	7296	3184	60864	11744	1	
15728	56752	7296	3184	60864	11744	1	
15792	57344	7392	3152	60880	11728	1	
15728	57616	7456	3152	60864	11744	1	
15568	57472	7552	3152	60880	11696	1	
15568	57472	7552	3152	60880	11696	1	
15552	57200	7664	3136	60816	11728	1	
15552	57200	7664	3136	60816	11728	1	
15440	56544	7776	3056	60800	11888	1	
15360	55616	7840	3056	60832	12112	1	
15424	54672	7824	2976	60880	12400	1	
15424	54672	7824	2976	60880	12400	1	
15680	53904	7824	2928	60880	12656	1	
15680	53904	7824	2928	60880	12656	1	
15872	53296	7792	2864	60816	12896	1	
15872	53296	7792	2864	60816	12896	1	
16160	53168	7712	2832	60864	13296	1	
16160	53168	7712	2832	60864	13296	1	
16336	53536	7696	2800	60880	13584	1	
16320	53648	7664	2736	60880	13808	1	
16320	53648	7664	2736	60880	13808	1	
16384	53440	7632	2672	60864	13968	1	
16752	53216	7632	2640	60560	14016	1	
16752	53216	7632	2640	60560	14016	1	
17520	53568	7632	2624	60736	14192	1	
18224	53840	7696	2592	60800	14368	1	
19104	54592	7728	2512	60864	14672	1	
19856	55072	7760	2496	60864	14768	1	
19856	55072	7760	2496	60864	14768	1	
20304	55680	7776	2448	60832	14720	1	
20304	55680	7776	2448	60832	14720	1	
20720	56448	7792	2432	60912	14720	1	
20960	57008	7760	2400	60864	14544	1	
20960	57008	7760	2400	60864	14544	1	
20960	57008	7760	2400	60864	14544	1	
21472	57280	7952	2384	60864	14400	1	
21472	57280	7952	2384	60864	14400	1	
21472	57280	7952	2384	60864	14400	1	
21472	57280	7952	2384	60864	14400	1	
21712	57312	8112	2416	60816	14720	1	
21936	58288	8384	2480	60752	14848	1	
21936	58288	8384	2480	60752	14848	1	
22096	58384	8416	2512	60832	14816	1	
22096	58384	8416	2512	60832	14816	1	
22336	58736	8448	2528	60880	14752	1	
22512	59040	8464	2480	60848	14704	1	
22752	59712	8416	2496	60848	14592	1	
22752	59712	8416	2496	60848	14592	1	
23072	60576	8368	2464	60880	14464	1	
23472	60800	8320	2464	60864	14256	1	
23472	60800	8320	2464	60864	14256	1	
23856	60736	8352	2400	60896	14128	1	
24352	60768	8432	2464	60880	14000	1	
24704	60752	8512	2496	60704	13856	1	
24704	60752	8512	2496	60704	13856	1	
25136	60768	8592	2560	60400	13792	1	
25136	60768	8592	2560	60400	13792	1	
25504	60768	8624	2624	60784	13904	1	
25504	60768	8624	2624	60784	13904	1	
25760	60752	8656	2624	60864	13840	1	
25808	60720	8720	2672	60832	13760	1	
26016	60752	8752	2688	60864	13616	1	
26016	60752	8752	2688	60864	13616	1	
26016	60752	8752	2688	60864	13616	1	
26016	60752	8752	2688	60864	13616	1	
26016	60752	8752	2688	60864	13616	1	
26016	60752	8752	2688	60864	13616	1	
26016	60752	8752	2688	60864	13616	1	
26016	60752	8752	2688	60864	13616	1	
26016	60752	8752	2688	60864	13616	1	
26016	60752	8752	2688	60864	13616	1	
26016	60752	8752	2688	60864	13616	1	
26016	60752	8752	2688	60864	13616	1	
26016	60752	8752	2688	60864	13616	1	
26016	60752	8752	2688	60864	13616	1	
26192	60800	8784	2672	60880	13584	1	
26160	60640	8752	2688	60864	13472	1	
26080	60688	8576	2736	60768	13152	1	
25808	60160	8544	2720	60832	12816	1	
25856	59744	8512	2720	60864	12704	1	
25728	60256	8560	2720	60816	12720	1	
25680	60704	8704	2784	60864	13184	1	
25680	60704	8704	2784	60864	13184	1	
25184	60752	8704	2800	60864	13760	1	
24352	60752	8608	2752	60832	13920	1	
24192	60768	8576	2784	60768	14064	1	
24480	60416	8576	2784	60864	14176	1	
24480	60416	8576	2784	60864	14176	1	
25056	60176	8560	2736	60864	14880	1	
26224	59888	8560	2736	60848	16064	1	
26224	59888	8560	2736	60848	16064	1	
27088	60176	8544	2720	60752	16880	1	
27808	60080	8528	2688	60832	17600	1	
27808	60080	8528	2688	60832	17600	1	
27808	60080	8528	2688	60832	17600	1	
28160	59760	8576	2672	60848	18000	1	
28464	59680	8560	2704	60848	18416	1	
28832	60656	8576	2848	60640	18784	1	
28832	60656	8576	2848	60640	18784	1	
29456	60720	8688	3040	60736	19200	1	
30032	60576	8736	3328	60848	19648	1	
30032	60576	8736	3328	60848	19648	1	
30480	60656	8832	3536	60848	19952	1	
30800	60736	8864	3696	60864	20032	1	
30800	60736	8864	3696	60864	20032	1	
30800	60784	8832	3808	60864	19936	1	
30624	60672	8912	3904	60880	19792	1	
30624	60672	8912	3904	60880	19792	1	
30320	60784	8944	4000	60864	19600	1	
29904	60784	9008	4080	60800	19280	1	
29904	60784	9008	4080	60800	19280	1	
29488	60752	8944	4160	60848	18976	1	
29184	60768	8880	4176	60864	18624	1	
28784	60784	8784	4144	60800	18496	1	
28784	60784	8784	4144	60800	18496	1	
28528	60784	8736	4176	60848	18592	1	
28384	60784	8688	4144	60880	18608	1	
28384	60784	8688	4144	60880	18608	1	
28080	60768	8576	4144	60896	18512	1	
27760	60720	8512	4240	60784	18624	1	
27744	60800	8544	4320	60816	18704	1	
27744	60800	8544	4320	60816	18704	1	
27760	60736	8592	4368	60848	18720	1	
27760	60736	8592	4368	60848	18720	1	
27856	60464	8560	4352	60864	18624	1	
27696	60480	8560	4368	60848	18496	1	
27504	60752	8608	4384	60880	18304	1	
27504	60752	8608	4384	60880	18304	1	
27504	60752	8608	4384	60880	18304	1	
27632	60640	8640	4320	60896	18096	1	
28064	60768	8656	4320	60864	17904	1	
28064	60768	8656	4320	60864	17904	1	
28528	60752	8672	4288	60880	17904	1	
28528	60752	8672	4288	60880	17904	1	
29248	60624	8688	4304	60736	18224	1	
29840	60768	8768	4320	60848	18624	1	
29840	60768	8768	4320	60848	18624	1	
30272	60752	8864	4304	60752	18896	1	
30496	60752	8896	4304	60880	18912	1	
30448	60656	8928	4320	60880	18912	1	
30272	60720	8960	4256	60768	18752	1	
30272	60720	8960	4256	60768	18752	1	
30064	60800	8992	4208	60832	18576	1	
30064	60800	8992	4208	60832	18576	1	
29760	60736	9024	4160	60880	18336	1	
29760	60736	9024	4160	60880	18336	1	
29584	60752	9024	4064	60800	18112	1	
29584	60752	9024	4064	60800	18112	1	
29296	60752	9088	4048	60880	17824	1	
28848	60720	9152	3984	60864	17520	1	
28848	60720	9152	3984	60864	17520	1	
28848	60720	9152	3984	60864	17520	1	
27632	60736	9264	3872	60880	16784	1	
27632	60736	9264	3872	60880	16784	1	
27120	60768	9248	3776	60896	16432	1	
26928	60768	9216	3680	60896	16080	1	
26928	60768	9216	3680	60896	16080	1	
26592	60752	9232	3664	60912	15888	1	
26592	60752	9232	3664	60912	15888	1	
26336	60768	9200	3696	60880	15968	1	
26336	60768	9200	3696	60880	15968	1	
25776	60768	9184	3744	60848	15936	1	
25776	60768	9184	3744	60848	15936	1	
25504	60752	9184	3680	60880	15888	1	
25504	60752	9184	3680	60880	15888	1	
25312	60752	9248	3632	60832	15840	1	
25312	60752	9248	3632	60832	15840	1	
25136	60752	9376	3680	60848	15872	1	
25136	60752	9376	3680	60848	15872	1	
24912	60752	9520	3712	60880	15808	1	
24624	60752	9552	3744	60848	15840	1	
24624	60752	9552	3744	60848	15840	1	
24528	60736	9600	3888	60880	15856	1	
24800	60768	9568	3984	60880	15968	1	
24800	60768	9568	3984	60880	15968	1	
24944	60688	9520	4128	60848	16048	1	
25376	60736	9440	4240	60848	16272	1	
25376	60736	9440	4240	60848	16272	1	
25632	60672	9328	4352	60864	16480	1	
25744	60688	9184	4464	60864	16496	1	
25744	60688	9184	4464	60864	16496	1	
25648	60720	9008	4544	60688	16432	1	
25392	60784	8928	4640	60848	16272	1	
25088	60752	8800	4736	60752	16048	1	
25088	60752	8800	4736	60752	16048	1	
24784	60720	8672	4736	60848	15824	1	
24608	60784	8688	4688	60832	15712	1	
24608	60784	8688	4688	60832	15712	1	
24352	60768	8688	4672	60816	15584	1	
24112	60768	8736	4688	60864	15424	1	
23824	60768	8864	4672	60864	15280	1	
23824	60768	8864	4672	60864	15280	1	
23472	60768	8864	4688	60864	15088	1	
23472	60768	8864	4688	60864	15088	1	
23008	60704	8848	4656	60880	14864	1	
23008	60704	8848	4656	60880	14864	1	
22768	60736	8784	4640	60848	14624	1	
22464	60704	8720	4656	60816	14384	1	
22160	60768	8656	4688	60800	14160	1	
22096	60752	8624	4720	60832	14096	1	
22096	60752	8624	4720	60832	14096	1	
22096	60752	8624	4720	60832	14096	1	
22240	60752	8608	4704	60864	14288	1	
22432	60784	8464	4672	60848	14416	1	
22688	60704	8368	4624	60864	14480	1	
22688	60704	8368	4624	60864	14480	1	
22688	60704	8368	4624	60864	14480	1	
23008	60720	8336	4544	60768	14528	1	
23328	60720	8416	4512	60816	14592	1	
23808	60736	8480	4512	60864	14944	1	
24224	60608	8496	4512	60816	15440	1	
24416	60688	8480	4512	60864	15872	1	
24608	60736	8416	4576	60880	16288	1	
24608	60736	8416	4576	60880	16288	1	
24832	60640	8320	4576	60880	16640	1	
24832	60640	8320	4576	60880	16640	1	
24832	60640	8320	4576	60880	16640	1	
24944	60720	8256	4592	60864	16752	1	
24800	60752	8176	4608	60864	16768	1	
24800	60752	8176	4608	60864	16768	1	
24672	60784	8048	4576	60880	16688	1	
24448	60624	7904	4480	60848	16496	1	
24448	60624	7904	4480	60848	16496	1	
24512	60720	7728	4432	60688	16256	1	
24400	60752	7680	4336	60816	16112	1	
24368	60720	7632	4304	60752	16176	1	
24368	60720	7632	4304	60752	16176	1	
24240	60720	7664	4240	60848	16160	1	
24064	60784	7632	4160	60896	16016	1	
24064	60784	7632	4160	60896	16016	1	
23728	60784	7536	4144	60848	15840	1	
23440	60784	7456	4080	60848	15552	1	
23440	60784	7456	4080	60848	15552	1	
23440	60784	7456	4080	60848	15552	1	
22640	60768	7312	3904	60864	14976	1	
22640	60768	7312	3904	60864	14976	1	
22640	60768	7312	3904	60864	14976	1	
22528	60768	7232	3824	60896	14688	1	
22576	60752	7120	3712	60848	14800	1	
22576	60752	7120	3712	60848	14800	1	
22928	60768	7072	3584	60896	15152	1	
23280	60784	7120	3552	60848	15616	1	
23568	60752	7088	3552	60800	16080	1	
23568	60752	7088	3552	60800	16080	1	
23568	60752	7088	3552	60800	16080	1	
24032	60736	7088	3536	60832	16384	1	
24656	60592	7120	3488	60768	16576	1	
24656	60592	7120	3488	60768	16576	1	
25152	60480	7168	3408	60880	16784	1	
25504	60256	7232	3408	60800	16736	1	
25664	60560	7408	3408	60800	16832	1	
25664	60560	7408	3408	60800	16832	1	
25664	60704	7632	3392	60880	16944	1	
25856	60784	7792	3472	60880	17168	1	
25856	60784	7792	3472	60880	17168	1	
25872	60800	7984	3536	60832	17328	1	
25872	60800	7984	3536	60832	17328	1	
25888	60688	8032	3536	60880	17328	1	
26176	60672	8048	3568	60880	17408	1	
26560	60752	8080	3616	60768	17648	1	
26560	60752	8080	3616	60768	17648	1	
26560	60752	8080	3616	60768	17648	1	
26560	60752	8080	3616	60768	17648	1	
27120	60608	8112	3664	60816	17856	1	
27408	60736	8096	3632	60848	17904	1	
27520	60752	8064	3632	60848	17856	1	
27328	60720	8000	3648	60864	17664	1	
27136	60800	7920	3680	60848	17472	1	
26960	60768	7888	3680	60880	17248	1	
26656	60752	7920	3728	60784	17040	1	
26656	60752	7920	3728	60784	17040	1	
26368	60736	7840	3696	60896	16736	1	
26368	60736	7840	3696	60896	16736	1	
26192	60752	7840	3680	60880	16528	1	
25920	60784	7904	3632	60896	16272	1	
25744	60752	7872	3680	60848	16048	1	
25744	60752	7872	3680	60848	16048	1	
25648	60768	7856	3744	60864	15792	1	
25648	60768	7856	3744	60864	15792	1	
25504	60704	7792	3808	60896	15760	1	
25328	60768	7696	3872	60864	15904	1	
25328	60768	7696	3872	60864	15904	1	
25168	60768	7632	3856	60848	15872	1	
25280	60720	7808	3856	60816	16016	1	
25280	60720	7808	3856	60816	16016	1	
25328	60752	8112	3904	60832	16416	1	
25328	60752	8112	3904	60832	16416	1	
25216	60656	8336	3952	60848	16544	1	
25376	60768	8480	3984	60864	16688	1	
25376	60768	8480	3984	60864	16688	1	
25696	60752	8608	3984	60752	16784	1	
26000	60752	8640	3952	60832	17152	1	
26000	60752	8640	3952	60832	17152	1	
26000	60752	8640	3952	60832	17152	1	
26208	60752	8800	4000	60848	17488	1	
26288	60736	8880	3936	60864	17936	1	
26304	60784	8960	3904	60864	18224	1	
26304	60784	8960	3904	60864	18224	1	
26160	60544	9056	3872	60864	18384	1	
25824	60288	9104	3888	60864	18352	1	
25824	60288	9104	3888	60864	18352	1	
25360	59744	9136	3872	60896	18288	1	
24880	59408	9104	3888	60896	18192	1	
24880	59408	9104	3888	60896	18192	1	
24544	58848	9056	3904	60880	18096	1	
24176	58288	9040	3856	60512	17904	1	
24176	58288	9040	3856	60512	17904	1	
23824	57888	8912	3840	60144	17568	1	
23824	57888	8912	3840	60144	17568	1	
23680	58032	8800	3888	60032	17312	1	
23376	58400	8784	3888	59872	16944	1	
23376	58400	8784	3888	59872	16944	1	
22960	59232	8784	3904	59840	16544	1	
22768	59856	8800	3808	59440	16352	1	
22768	59856	8800	3808	59440	16352	1	
22576	60768	8768	3808	59136	16608	1	
22672	60704	8720	3792	58528	16592	1	
22672	60704	8720	3792	58528	16592	1	
22800	60784	8784	3728	57840	16544	1	
22976	60736	8880	3680	57456	16448	1	
22976	60736	8880	3680	57456	16448	1	
22960	60768	8960	3632	58256	16176	1	
22960	60768	8960	3632	58256	16176	1	
22960	60768	8960	3632	58256	16176	1	
23216	60752	9008	3616	59328	15792	1	
23216	60752	9008	3616	59328	15792	1	
23536	60656	9056	3600	59456	15632	1	
23728	60752	9040	3584	59088	15392	1	
23728	60752	9040	3584	59088	15392	1	
23792	60784	9040	3552	58768	15152	1	
23792	60784	9040	3552	58768	15152	1	
23696	60784	8992	3504	58256	14976	1	
23696	60784	8992	3504	58256	14976	1	
23568	60672	8848	3504	57936	14800	1	
23312	60256	8704	3440	58032	14608	1	
23312	60256	8704	3440	58032	14608	1	
23120	59696	8624	3408	58448	14336	1	
23120	59696	8624	3408	58448	14336	1	
22992	59376	8512	3344	58544	14112	1	
22992	59376	8512	3344	58544	14112	1	
22768	59312	8400	3344	59008	13856	1	
22480	59728	8288	3360	58848	13568	1	
22128	59904	8064	3296	58304	13328	1	
22128	59904	8064	3296	58304	13328	1	
22208	60416	7952	3280	57760	13232	1	
22208	60416	7952	3280	57760	13232	1	
22208	60416	7952	3280	57760	13232	1	
22496	60656	7840	3328	57328	13216	1	
22496	60656	7840	3328	57328	13216	1	
22608	60448	7712	3360	56816	13152	1	
22928	60160	7600	3328	55952	13328	1	
23056	59744	7520	3296	55024	13328	1	
23568	59248	7456	3296	53984	13376	1	
23568	59248	7456	3296	53984	13376	1	
23952	59104	7424	3232	52832	13488	1	
23952	59104	7424	3232	52832	13488	1	
24256	59072	7408	3248	53120	13760	1	
24464	58752	7456	3168	54080	13936	1	
24464	58752	7456	3168	54080	13936	1	
24464	58768	7552	3120	54672	14048	1	
24464	58768	7552	3120	54672	14048	1	
24288	59328	7648	3088	55872	13984	1	
24032	59600	7744	3104	57680	13824	1	
23728	59552	7856	3072	58976	13632	1	
23728	59552	7856	3072	58976	13632	1	
23376	59600	7904	3024	59680	13408	1	
23040	59600	7888	3056	60624	13152	1	
23040	59600	7888	3056	60624	13152	1	
23040	59600	7888	3056	60624	13152	1	
22608	59392	7872	2976	60864	12896	1	
22208	59936	7856	2912	60864	12640	1	
21760	60480	7776	2880	60800	12368	1	
21760	60480	7776	2880	60800	12368	1	
21264	60736	7680	2896	60320	12144	1	
20816	60768	7552	2848	60048	11936	1	
20816	60768	7552	2848	60048	11936	1	
20816	60768	7552	2848	60048	11936	1	
20672	60768	7424	2816	59840	11728	1	
20528	60768	7280	2768	59904	11600	1	
20928	60512	7104	2672	60112	11536	1	
21456	60112	6944	2624	59856	11648	1	
21456	60112	6944	2624	59856	11648	1	
21936	59888	6800	2656	59488	11744	1	
21936	59888	6800	2656	59488	11744	1	
21936	59888	6800	2656	59488	11744	1	
22320	59984	6640	2608	59664	11808	1	
22624	59744	6576	2640	60192	11792	1	
22624	59744	6576	2640	60192	11792	1	
22752	59488	6480	2608	60208	11728	1	
23168	59040	6432	2592	60656	11744	1	
23168	59040	6432	2592	60656	11744	1	
23712	58688	6544	2576	60832	11840	1	
24320	58496	6608	2576	60832	12368	1	
25216	58176	6752	2592	60880	13024	1	
26512	57584	6816	2608	60880	13792	1	
26512	57584	6816	2608	60880	13792	1	
27808	56992	6992	2656	60864	14480	1	
27808	56992	6992	2656	60864	14480	1	
29120	57136	7072	2688	60864	15264	1	
30144	57520	7104	2688	60864	15808	1	
30144	57520	7104	2688	60864	15808	1	
30688	58416	7152	2720	60864	16240	1	
31104	58848	7200	2672	60512	16464	1	
31104	58848	7200	2672	60512	16464	1	
31216	58752	7136	2672	59872	16608	1	
31216	58752	7136	2672	59872	16608	1	
31168	58288	7088	2608	59360	16592	1	
31088	57760	7008	2592	58624	16496	1	
31088	57760	7008	2592	58624	16496	1	
30832	57072	6944	2496	57952	16368	1	
30432	56656	6928	2464	57424	16288	1	
30432	56656	6928	2464	57424	16288	1	
30432	56656	6928	2464	57424	16288	1	
29872	56320	6896	2448	56896	16144	1	
29184	56160	6832	2448	57008	15872	1	
29184	56160	6832	2448	57008	15872	1	
28528	56080	6848	2528	57888	15568	1	
27808	55856	6864	2544	58480	15200	1	
27808	55856	6864	2544	58480	15200	1	
27808	55856	6864	2544	58480	15200	1	
27056	55328	6896	2592	59424	14816	1	
26640	54624	6928	2624	60224	14464	1	
26640	54624	6928	2624	60224	14464	1	
26640	54624	6928	2624	60224	14464	1	
26640	54624	6928	2624	60224	14464	1	
26640	54624	6928	2624	60224	14464	1	
26640	54624	6928	2624	60224	14464	1	
26640	54624	6928	2624	60224	14464	1	
26640	54624	6928	2624	60224	14464	1	
26640	54624	6928	2624	60224	14464	1	
26640	54624	6928	2624	60224	14464	1	
26640	54624	6928	2624	60224	14464	1	
26640	54624	6928	2624	60224	14464	1	
26640	54624	6928	2624	60224	14464	1	
26640	54624	6928	2624	60224	14464	1	
26384	53232	6848	2656	60288	14336	1	
26608	52016	6768	2624	60176	14608	1	
26672	51616	6800	2624	60816	14624	1	
26560	50000	6800	2608	60848	14784	1	
26512	49904	6800	2640	60880	14720	1	
26896	53008	6784	2784	60816	14688	1	
27008	54720	6816	2848	60864	14976	1	
27008	56448	6880	3024	60784	15472	1	
27056	56752	6896	3040	60848	15584	1	
27056	56752	6896	3040	60848	15584	1	
26960	56736	6912	3072	60816	15776	1	
26976	56592	6960	3120	59984	16016	1	
26736	56384	7136	3104	59680	16016	1	
26480	55952	7200	3120	59728	15968	1	
26480	55952	7200	3120	59728	15968	1	
26304	55408	7216	3104	59888	15808	1	
25968	54672	7200	3088	59920	15664	1	
25824	53984	7280	3168	60624	15600	1	
25824	53984	7280	3168	60624	15600	1	
25824	53984	7280	3168	60624	15600	1	
25792	53504	7504	3232	60608	15552	1	
25600	53248	7632	3296	60848	15408	1	
25248	53056	7760	3344	60864	15280	1	
24880	52960	7888	3360	60912	15120	1	
24880	52960	7888	3360	60912	15120	1	
24448	52784	7984	3360	60880	14880	1	
23952	52688	8048	3328	60896	14608	1	
23952	52688	8048	3328	60896	14608	1	
23600	52400	8016	3328	60848	14368	1	
23184	52160	8032	3312	60848	14032	1	
23184	52160	8032	3312	60848	14032	1	
22800	51520	8064	3248	60736	13712	1	
22800	51520	8064	3248	60736	13712	1	
22592	50832	7936	3232	60272	13456	1	
22464	50544	7808	3248	59712	13232	1	
22384	51824	7664	3248	59104	13056	1	
22208	53728	7536	3232	58640	12880	1	
22208	53728	7536	3232	58640	12880	1	
22000	55408	7440	3232	57840	12672	1	
22000	55408	7440	3232	57840	12672	1	
21808	57072	7376	3264	57216	12528	1	
21808	57072	7376	3264	57216	12528	1	
21696	59024	7376	3264	56704	12496	1	
21568	60512	7344	3232	56032	12560	1	
21376	60752	7312	3200	56112	12528	1	
21376	60752	7312	3200	56112	12528	1	
21120	60752	7248	3184	56096	12384	1	
20896	60736	7232	3168	55680	12320	1	
20896	60736	7232	3168	55680	12320	1	
20656	60720	7264	3136	55216	12208	1	
20656	60720	7264	3136	55216	12208	1	
20592	60752	7232	3136	54544	12080	1	
20400	60736	7184	3120	54400	12000	1	
20400	60736	7184	3120	54400	12000	1	
20400	60736	7184	3120	54400	12000	1	
20400	60736	7184	3120	54400	12000	1	
20400	60736	7184	3120	54400	12000	1	
20400	60736	7184	3120	54400	12000	1	
20400	60736	7184	3120	54400	12000	1	
20400	60736	7184	3120	54400	12000	1	
20400	60736	7184	3120	54400	12000	1	
20400	60736	7184	3120	54400	12000	1	
20400	60736	7184	3120	54400	12000	1	
20400	60736	7184	3120	54400	12000	1	
19904	60752	7232	3104	53104	11808	1	
19792	60752	7264	3088	52720	11664	1	
19440	60752	7232	3136	51776	11408	1	
19440	60752	7232	3136	51776	11408	1	
19440	60752	7232	3136	51776	11408	1	
19440	60752	7232	3136	51776	11408	1	
18992	60208	7136	3088	51184	11120	1	
18992	60208	7136	3088	51184	11120	1	
18464	59248	7200	2976	51696	10656	1	
17968	58320	7232	2880	52976	10368	1	
17984	57632	7264	2896	52944	10384	1	
18448	56960	7328	2896	52816	10576	1	
19120	56384	7248	2912	52560	11344	1	
19120	56384	7248	2912	52560	11344	1	
19488	56112	7216	2912	52464	11840	1	
19488	56112	7216	2912	52464	11840	1	
19904	56256	7200	2912	52096	12256	1	
20352	56160	7184	2896	51888	12672	1	
20352	56160	7184	2896	51888	12672	1	
20352	56160	7184	2896	51888	12672	1	
20768	55936	7232	2864	51648	12896	1	
21024	55632	7232	2832	51232	13184	1	
21408	55328	7232	2816	50656	13632	1	
21920	55328	7136	2864	50096	14112	1	
21920	55328	7136	2864	50096	14112	1	
22272	55440	7120	2880	49456	14480	1	
22272	55440	7120	2880	49456	14480	1	
22480	56144	7008	2880	48592	14784	1	
22480	56144	7008	2880	48592	14784	1	
22752	56768	6896	2864	47760	14896	1	
22864	57840	6816	2864	47488	15040	1	
22864	57840	6816	2864	47488	15040	1	
23056	59104	6688	2912	47296	15152	1	
23232	60112	6576	2880	46768	15232	1	
23232	60112	6576	2880	46768	15232	1	
23328	60752	6480	2896	47344	15216	1	
23328	60752	6480	2896	47344	15216	1	
23264	60768	6416	2960	48192	15152	1	
23040	60720	6464	3008	48640	15008	1	
22816	60768	6464	3024	48560	14896	1	
22816	60768	6464	3024	48560	14896	1	
22512	60656	6464	3056	48192	14752	1	
22512	60656	6464	3056	48192	14752	1	
22112	60720	6416	3024	47920	14496	1	
21632	60736	6464	2992	47680	14192	1	
21216	60752	6432	3008	47712	13904	1	
20896	60784	6416	2960	47584	13552	1	
20896	60784	6416	2960	47584	13552	1	
20512	60768	6384	2896	47344	13184	1	
20512	60768	6384	2896	47344	13184	1	
20512	60768	6384	2896	47344	13184	1	
20192	60736	6336	2864	47120	12848	1	
19888	60784	6320	2768	46928	12496	1	
19888	60784	6320	2768	46928	12496	1	
19712	60720	6320	2704	46720	12464	1	
19648	60304	6352	2720	46480	12624	1	
19648	60304	6352	2720	46480	12624	1	
19408	59824	6368	2704	46256	12592	1	
19200	59360	6352	2672	46336	12512	1	
19344	58608	6384	2608	47136	12496	1	
19344	58608	6384	2608	47136	12496	1	
19392	57808	6480	2624	47984	12448	1	
19392	57808	6480	2624	47984	12448	1	
19696	56736	6672	2560	48240	12672	1	
19696	56736	6672	2560	48240	12672	1	
19888	55664	6800	2576	48320	12784	1	
19888	55664	6800	2576	48320	12784	1	
19888	55664	6800	2576	48320	12784	1	
19888	55664	6800	2576	48320	12784	1	
19936	53744	7024	2560	48048	12816	1	
19776	52800	7104	2528	47600	12704	1	
19808	52256	7216	2528	47088	12640	1	
19808	52256	7216	2528	47088	12640	1	
20272	51600	7328	2512	46848	12656	1	
20448	50736	7376	2528	46384	12704	1	
20448	50736	7376	2528	46384	12704	1	
20928	49984	7456	2592	46080	13104	1	
20928	49984	7456	2592	46080	13104	1	
21488	49488	7456	2656	46128	13440	1	
21936	49984	7488	2704	46320	13776	1	
21936	49984	7488	2704	46320	13776	1	
22288	50400	7568	2752	47040	14000	1	
22288	50400	7568	2752	47040	14000	1	
22656	51136	7712	2736	47952	14112	1	
22816	52592	7776	2768	48176	14112	1	
22816	52592	7776	2768	48176	14112	1	
22752	53392	7840	2736	48528	14144	1	
22576	53968	7824	2768	49392	14064	1	
22416	54288	7808	2736	49840	13904	1	
22416	54288	7808	2736	49840	13904	1	
22176	54576	7824	2768	50208	13792	1	
21984	54864	7856	2768	50480	13664	1	
21984	54864	7856	2768	50480	13664	1	
21984	54864	7856	2768	50480	13664	1	
21920	55344	7984	2736	50752	13616	1	
21712	55472	7920	2736	50720	13472	1	
21712	55472	7920	2736	50720	13472	1	
21920	55312	7920	2688	50320	13392	1	
21904	54992	7936	2672	49904	13312	1	
21904	54992	7936	2672	49904	13312	1	
21904	54992	7936	2672	49904	13312	1	
22144	54560	7936	2608	49760	13344	1	
22432	53936	7904	2576	50112	13424	1	
22880	53056	7872	2544	50336	13472	1	
22880	53056	7872	2544	50336	13472	1	
